16.2650   0
16.2900   1
16.3150   1
16.3400   0
16.3650   1
16.3900   5
16.4150   1
16.4400   0
16.4650   4
16.4900   1
16.5150   3
16.5400   0
16.5650   1
16.5900   1
16.6150   3
16.6400   2
16.6650   2
16.6900   1
16.7150   3
16.7400   3
16.7650   1
16.7900   3
16.8150   1
16.8400   1
16.8650   2
16.8900   2
16.9150   2
16.9400   2
16.9650   1
16.9900   0
17.0150   4
17.0400   0
17.0650   4
17.0900   1
17.1150   0
17.1400   0
17.1650   1
17.1900   2
17.2150   1
17.2400   7
17.2650   3
17.2900   2
17.3150   0
17.3400   0
17.3650   3
17.3900   1
17.4150   1
17.4400   1
17.4650   6
17.4900   4
17.5150   2
17.5400   2
17.5650   2
17.5900   2
17.6150   0
17.6400   1
17.6650   3
17.6900   3
17.7150   4
17.7400   9
17.7650   5
17.7900   5
17.8150   3
17.8400   3
17.8650   4
17.8900   6
17.9150   7
17.9400   4
17.9650   11
17.9900   9
18.0150   8
18.0400   13
18.0650   8
18.0900   11
18.1150   9
18.1400   16
18.1650   17
18.1900   17
18.2150   13
18.2400   18
18.2650   20
18.2900   20
18.3150   25
18.3400   30
18.3650   23
18.3900   46
18.4150   56
18.4400   36
18.4650   72
18.4900   68
18.5150   94
18.5400   114
18.5650   132
18.5900   201
18.6150   283
18.6400   333
18.6650   545
18.6900   673
18.7150   777
18.7400   956
18.7650   1121
18.7900   1327
18.8150   1646
18.8400   1919
18.8650   2311
18.8900   2468
18.9150   2798
18.9400   3055
18.9650   3093
18.9900   3318
19.0150   3415
19.0400   3500
19.0650   3624
19.0900   3884
19.1150   3952
19.1400   4111
19.1650   4217
19.1900   4538
19.2150   4772
19.2400   5042
19.2650   5194
19.2900   5128
19.3150   5468
19.3400   5545
19.3650   5686
19.3900   5728
19.4150   5757
19.4400   5565
19.4650   5541
19.4900   5480
19.5150   5396
19.5400   5219
19.5650   4719
19.5900   4501
19.6150   3927
19.6400   3507
19.6650   2962
19.6900   2539
19.7150   2127
19.7400   1682
19.7650   1487
19.7900   1065
19.8150   858
19.8400   668
19.8650   505
19.8900   359
19.9150   301
19.9400   228
19.9650   171
19.9900   128
20.0150   109
20.0400   89
20.0650   68
20.0900   62
20.1150   54
20.1400   56
20.1650   47
20.1900   25
20.2150   41
20.2400   27
20.2650   27
20.2900   22
20.3150   20
20.3400   21
20.3650   8
20.3900   23
20.4150   10
20.4400   8
20.4650   7
20.4900   13
20.5150   8
20.5400   12
20.5650   6
20.5900   9
20.6150   5
20.6400   5
20.6650   8
20.6900   5
20.7150   4
20.7400   7
20.7650   4
20.7900   2
20.8150   4
20.8400   6
20.8650   7
20.8900   1
20.9150   6
20.9400   3
20.9650   4
20.9900   2
21.0150   2
21.0400   6
21.0650   4
21.0900   3
21.1150   0
21.1400   1
21.1650   3
21.1900   1
21.2150   4
21.2400   2
21.2650   3
21.2900   0
21.3150   1
21.3400   2
21.3650   4
21.3900   2
21.4150   0
21.4400   2
21.4650   2
21.4900   4
21.5150   2
21.5400   2
21.5650   0
21.5900   2
21.6150   0
21.6400   3
21.6650   1
21.6900   1
21.7150   2
21.7400   1
21.7650   2
21.7900   3
21.8150   2
21.8400   2
21.8650   4
21.8900   3
21.9150   2
21.9400   0
21.9650   0
21.9900   1
22.0150   1
22.0400   1
22.0650   1
22.0900   1
22.1150   1
22.1400   1
22.1650   0
22.1900   2
22.2150   2
22.2400   1
22.2650   2
