10.0000   80
10.0500   75
10.1000   78
10.1500   84
10.2000   84
10.2500   87
10.3000   94
10.3500   94
10.4000   82
10.4500   79
10.5000   74
10.5500   73
10.6000   100
10.6500   80
10.7000   102
10.7500   84
10.8000   91
10.8500   92
10.9000   83
10.9500   85
11.0000   91
11.0500   79
11.1000   74
11.1500   78
11.2000   74
11.2500   80
11.3000   70
11.3500   76
11.4000   77
11.4500   111
11.5000   94
11.5500   93
11.6000   117
11.6500   110
11.7000   153
11.7500   100
11.8000   136
11.8500   132
11.9000   118
11.9500   140
12.0000   105
12.0500   96
12.1000   109
12.1500   107
12.2000   114
12.2500   84
12.3000   71
12.3500   91
12.4000   81
12.4500   62
12.5000   69
12.5500   77
12.6000   71
12.6500   72
12.7000   79
12.7500   79
12.8000   89
12.8500   75
12.9000   73
12.9500   97
13.0000   67
13.0500   83
13.1000   78
13.1500   84
13.2000   76
13.2500   85
13.3000   63
13.3500   90
13.4000   73
13.4500   69
13.5000   73
13.5500   83
13.6000   83
13.6500   83
13.7000   83
13.7500   92
13.8000   83
13.8500   90
13.9000   84
13.9500   88
14.0000   101
14.0500   86
14.1000   107
14.1500   100
14.2000   101
14.2500   108
14.3000   109
14.3500   131
14.4000   134
14.4500   162
14.5000   167
14.5500   185
14.6000   209
14.6500   231
14.7000   255
14.7500   314
14.8000   397
14.8500   629
14.9000   1025
14.9500   1719
15.0000   2526
15.0500   3856
15.1000   8906
15.1500   36754
15.2000   70827
15.2500   37431
15.3000   6738
15.3500   2569
15.4000   1628
15.4500   979
15.5000   575
15.5500   363
15.6000   307
15.6500   250
15.7000   195
15.7500   144
15.8000   139
15.8500   106
15.9000   97
15.9500   79
16.0000   79
16.0500   79
16.1000   79
16.1500   70
16.2000   73
16.2500   55
16.3000   56
16.3500   60
16.4000   60
16.4500   57
16.5000   72
16.5500   49
16.6000   54
16.6500   49
16.7000   53
16.7500   56
16.8000   45
16.8500   44
16.9000   41
16.9500   51
17.0000   48
17.0500   55
17.1000   35
17.1500   42
17.2000   39
17.2500   51
17.3000   51
17.3500   51
17.4000   50
17.4500   54
17.5000   48
17.5500   49
17.6000   40
17.6500   41
17.7000   49
17.7500   50
17.8000   51
17.8500   45
17.9000   43
17.9500   46
18.0000   43
18.0500   42
18.1000   42
18.1500   32
18.2000   43
18.2500   45
18.3000   43
18.3500   38
18.4000   38
18.4500   34
18.5000   39
18.5500   42
18.6000   33
18.6500   41
18.7000   46
18.7500   40
18.8000   43
18.8500   48
18.9000   37
18.9500   40
19.0000   52
19.0500   35
19.1000   39
19.1500   39
19.2000   41
19.2500   48
19.3000   41
19.3500   39
19.4000   41
19.4500   45
19.5000   44
19.5500   39
19.6000   42
19.6500   44
19.7000   33
19.7500   37
19.8000   41
19.8500   33
19.9000   31
19.9500   45
20.0000   36
20.0500   37
20.1000   38
20.1500   44
20.2000   44
20.2500   34
20.3000   40
20.3500   38
20.4000   34
20.4500   30
20.5000   46
20.5500   60
20.6000   65
20.6500   72
20.7000   43
20.7500   46
20.8000   50
20.8500   54
20.9000   41
20.9500   52
21.0000   48
21.0500   74
21.1000   62
21.1500   126
21.2000   370
21.2500   160
21.3000   66
21.3500   82
21.4000   86
21.4500   66
21.5000   87
21.5500   88
21.6000   86
21.6500   97
21.7000   113
21.7500   115
21.8000   119
21.8500   156
21.9000   147
21.9500   169
22.0000   210
22.0500   235
22.1000   275
22.1500   316
22.2000   354
22.2500   408
22.3000   540
22.3500   678
22.4000   854
22.4500   1095
22.5000   1731
22.5500   2566
22.6000   4673
22.6500   7356
22.7000   12180
22.7500   24926
22.8000   64960
22.8500   107112
22.9000   95346
22.9500   47293
23.0000   14954
23.0500   9781
23.1000   8547
23.1500   9365
23.2000   17379
23.2500   30492
23.3000   39803
23.3500   52731
23.4000   79713
23.4500   89727
23.5000   88884
23.5500   92686
23.6000   101997
23.6500   41484
23.7000   24700
23.7500   14436
23.8000   9580
23.8500   6683
23.9000   5127
23.9500   4040
24.0000   3250
24.0500   2620
24.1000   2134
24.1500   1697
24.2000   1290
24.2500   1193
24.3000   946
24.3500   820
24.4000   680
24.4500   550
24.5000   504
24.5500   430
24.6000   361
24.6500   365
24.7000   329
24.7500   309
24.8000   288
24.8500   259
24.9000   246
24.9500   190
25.0000   221
25.0500   187
25.1000   162
25.1500   171
25.2000   162
25.2500   160
25.3000   125
25.3500   135
25.4000   121
25.4500   124
25.5000   106
25.5500   88
25.6000   96
25.6500   108
25.7000   100
25.7500   84
25.8000   106
25.8500   85
25.9000   85
25.9500   83
26.0000   73
26.0500   81
26.1000   67
26.1500   73
26.2000   77
26.2500   62
26.3000   64
26.3500   84
26.4000   56
26.4500   70
26.5000   63
26.5500   56
26.6000   61
26.6500   58
26.7000   64
26.7500   51
26.8000   56
26.8500   53
26.9000   57
26.9500   53
27.0000   53
27.0500   55
27.1000   64
27.1500   51
27.2000   46
27.2500   60
27.3000   40
27.3500   50
27.4000   45
27.4500   47
27.5000   51
27.5500   61
27.6000   60
27.6500   67
27.7000   47
27.7500   54
27.8000   58
27.8500   54
27.9000   55
27.9500   47
28.0000   42
28.0500   49
28.1000   43
28.1500   41
28.2000   55
28.2500   46
28.3000   48
28.3500   49
28.4000   38
28.4500   63
28.5000   53
28.5500   52
28.6000   43
28.6500   54
28.7000   43
28.7500   32
28.8000   52
28.8500   44
28.9000   43
28.9500   39
29.0000   43
29.0500   47
29.1000   37
29.1500   38
29.2000   39
29.2500   42
29.3000   56
29.3500   42
29.4000   38
29.4500   33
29.5000   48
29.5500   57
29.6000   38
29.6500   39
29.7000   61
29.7500   49
29.8000   59
29.8500   45
29.9000   77
29.9500   54
30.0000   82
30.0500   86
30.1000   92
30.1500   101
30.2000   155
30.2500   187
30.3000   285
30.3500   465
30.4000   834
30.4500   1358
30.5000   2474
30.5500   5951
30.6000   14654
30.6500   14883
30.7000   9700
30.7500   3989
30.8000   1374
30.8500   782
30.9000   492
30.9500   366
31.0000   249
31.0500   237
31.1000   225
31.1500   204
31.2000   165
31.2500   157
31.3000   187
31.3500   167
31.4000   165
31.4500   169
31.5000   176
31.5500   188
31.6000   195
31.6500   186
31.7000   140
31.7500   134
31.8000   133
31.8500   125
31.9000   102
31.9500   107
32.0000   111
32.0500   100
32.1000   87
32.1500   75
32.2000   102
32.2500   94
32.3000   77
32.3500   82
32.4000   70
32.4500   68
32.5000   91
32.5500   89
32.6000   73
32.6500   70
32.7000   72
32.7500   77
32.8000   78
32.8500   89
32.9000   74
32.9500   77
33.0000   72
33.0500   65
33.1000   70
33.1500   71
33.2000   75
33.2500   80
33.3000   72
33.3500   108
33.4000   97
33.4500   120
33.5000   112
33.5500   147
33.6000   144
33.6500   176
33.7000   184
33.7500   198
33.8000   246
33.8500   281
33.9000   268
33.9500   264
34.0000   278
34.0500   265
34.1000   279
34.1500   244
34.2000   231
34.2500   214
34.3000   184
34.3500   188
34.4000   166
34.4500   144
34.5000   154
34.5500   165
34.6000   151
34.6500   163
34.7000   146
34.7500   136
34.8000   150
34.8500   105
34.9000   99
34.9500   109
35.0000   108
35.0500   116
35.1000   124
35.1500   136
35.2000   150
35.2500   170
35.3000   156
35.3500   141
35.4000   144
35.4500   165
35.5000   181
35.5500   180
35.6000   171
35.6500   171
35.7000   136
35.7500   115
35.8000   93
35.8500   95
35.9000   104
35.9500   88
36.0000   107
36.0500   81
36.1000   97
36.1500   83
36.2000   85
36.2500   84
36.3000   104
36.3500   103
36.4000   102
36.4500   96
36.5000   112
36.5500   124
36.6000   119
36.6500   114
36.7000   102
36.7500   132
36.8000   133
36.8500   129
36.9000   142
36.9500   123
37.0000   134
37.0500   139
37.1000   175
37.1500   161
37.2000   177
37.2500   181
37.3000   196
37.3500   222
37.4000   227
37.4500   265
37.5000   303
37.5500   347
37.6000   374
37.6500   424
37.7000   467
37.7500   583
37.8000   637
37.8500   761
37.9000   881
37.9500   1052
38.0000   1248
38.0500   1663
38.1000   2193
38.1500   3150
38.2000   4979
38.2500   7955
38.3000   12984
38.3500   21058
38.4000   34620
38.4500   60700
38.5000   101205
38.5500   108274
38.6000   93745
38.6500   78004
38.7000   36666
38.7500   14712
38.8000   8171
38.8500   5099
38.9000   3398
38.9500   2451
39.0000   1928
39.0500   1527
39.1000   1186
39.1500   992
39.2000   902
39.2500   752
39.3000   673
39.3500   538
39.4000   472
39.4500   403
39.5000   396
39.5500   316
39.6000   271
39.6500   226
39.7000   231
39.7500   202
39.8000   198
39.8500   150
39.9000   145
39.9500   139
40.0000   120
40.0500   103
40.1000   94
40.1500   91
40.2000   115
40.2500   103
40.3000   104
40.3500   121
40.4000   99
40.4500   104
40.5000   105
40.5500   103
40.6000   114
40.6500   78
40.7000   96
40.7500   92
40.8000   114
40.8500   68
40.9000   61
40.9500   73
41.0000   62
41.0500   56
41.1000   47
41.1500   51
41.2000   40
41.2500   39
41.3000   39
41.3500   26
41.4000   36
41.4500   34
41.5000   21
41.5500   36
41.6000   28
41.6500   26
41.7000   30
41.7500   27
41.8000   39
41.8500   54
41.9000   60
41.9500   65
42.0000   46
42.0500   34
42.1000   32
42.1500   26
42.2000   28
42.2500   26
42.3000   45
42.3500   23
42.4000   39
42.4500   33
42.5000   27
42.5500   32
42.6000   23
42.6500   39
42.7000   42
42.7500   30
42.8000   45
42.8500   50
42.9000   43
42.9500   34
43.0000   38
43.0500   66
43.1000   260
43.1500   382
43.2000   105
43.2500   71
43.3000   49
43.3500   43
43.4000   53
43.4500   46
43.5000   40
43.5500   53
43.6000   31
43.6500   46
43.7000   51
43.7500   44
43.8000   47
43.8500   52
43.9000   46
43.9500   60
44.0000   43
44.0500   42
44.1000   62
44.1500   64
44.2000   72
44.2500   65
44.3000   51
44.3500   73
44.4000   71
44.4500   92
44.5000   96
44.5500   99
44.6000   137
44.6500   114
44.7000   106
44.7500   114
44.8000   123
44.8500   149
44.9000   163
44.9500   160
45.0000   183
45.0500   186
45.1000   175
45.1500   195
45.2000   246
45.2500   263
45.3000   313
45.3500   347
45.4000   332
45.4500   405
45.5000   422
45.5500   449
45.6000   503
45.6500   628
45.7000   607
45.7500   741
45.8000   834
45.8500   1129
45.9000   1342
45.9500   1405
46.0000   1579
46.0500   1902
46.1000   2287
46.1500   2995
46.2000   3964
46.2500   5944
46.3000   8706
46.3500   13668
46.4000   21103
46.4500   31411
46.5000   46956
46.5500   74169
46.6000   106513
46.6500   103995
46.7000   106282
46.7500   97333
46.8000   81818
46.8500   38803
46.9000   19348
46.9500   12113
47.0000   8626
47.0500   6688
47.1000   5657
47.1500   4999
47.2000   4894
47.2500   4820
47.3000   4858
47.3500   5102
47.4000   5329
47.4500   5987
47.5000   6576
47.5500   7825
47.6000   9107
47.6500   12295
47.7000   23940
47.7500   45942
47.8000   57052
47.8500   66933
47.9000   99510
47.9500   95109
48.0000   91692
48.0500   94731
48.1000   95414
48.1500   97202
48.2000   91715
48.2500   49570
48.3000   32836
48.3500   20587
48.4000   13524
48.4500   10116
48.5000   8070
48.5500   6739
48.6000   5975
48.6500   5209
48.7000   4664
48.7500   4072
48.8000   3652
48.8500   3212
48.9000   2938
48.9500   2508
49.0000   2436
49.0500   2155
49.1000   1835
49.1500   1681
49.2000   1572
49.2500   1354
49.3000   1254
49.3500   1085
49.4000   981
49.4500   861
49.5000   753
49.5500   717
49.6000   618
49.6500   591
49.7000   536
49.7500   447
49.8000   380
49.8500   369
49.9000   355
49.9500   311
50.0000   287
50.0500   253
50.1000   221
50.1500   198
50.2000   207
50.2500   184
50.3000   158
50.3500   142
50.4000   113
50.4500   113
50.5000   116
50.5500   98
50.6000   120
50.6500   93
50.7000   98
50.7500   101
50.8000   77
50.8500   103
50.9000   78
50.9500   66
51.0000   66
51.0500   68
51.1000   74
51.1500   64
51.2000   70
51.2500   56
51.3000   62
51.3500   50
51.4000   62
51.4500   52
51.5000   51
51.5500   46
51.6000   57
51.6500   43
51.7000   50
51.7500   51
51.8000   46
51.8500   44
51.9000   61
51.9500   48
52.0000   52
52.0500   34
52.1000   49
52.1500   40
52.2000   44
52.2500   43
52.3000   44
52.3500   48
52.4000   38
52.4500   45
52.5000   48
52.5500   58
52.6000   43
52.6500   44
52.7000   35
52.7500   46
52.8000   47
52.8500   37
52.9000   33
52.9500   47
53.0000   42
53.0500   49
53.1000   46
53.1500   54
53.2000   51
53.2500   58
53.3000   60
53.3500   51
53.4000   57
53.4500   80
53.5000   67
53.5500   73
53.6000   84
53.6500   88
53.7000   81
53.7500   73
53.8000   98
53.8500   87
53.9000   111
53.9500   127
54.0000   121
54.0500   137
54.1000   146
54.1500   156
54.2000   182
54.2500   231
54.3000   250
54.3500   256
54.4000   331
54.4500   415
54.5000   547
54.5500   755
54.6000   1047
54.6500   1437
54.7000   2018
54.7500   2850
54.8000   4361
54.8500   6438
54.9000   10000
54.9500   17069
55.0000   26049
55.0500   23272
55.1000   15630
55.1500   15057
55.2000   11089
55.2500   4855
55.3000   2332
55.3500   1297
55.4000   903
55.4500   673
55.5000   465
55.5500   344
55.6000   280
55.6500   216
55.7000   232
55.7500   173
55.8000   166
55.8500   119
55.9000   133
55.9500   102
56.0000   103
56.0500   91
56.1000   94
56.1500   81
56.2000   84
56.2500   74
56.3000   68
56.3500   62
56.4000   51
56.4500   42
56.5000   45
56.5500   32
56.6000   48
56.6500   40
56.7000   41
56.7500   35
56.8000   24
56.8500   36
56.9000   27
56.9500   27
57.0000   26
57.0500   29
57.1000   27
57.1500   37
57.2000   25
57.2500   25
57.3000   24
57.3500   28
57.4000   24
57.4500   20
57.5000   21
57.5500   32
57.6000   20
57.6500   28
57.7000   33
57.7500   37
57.8000   45
57.8500   63
57.9000   70
57.9500   81
58.0000   93
58.0500   121
58.1000   121
58.1500   137
58.2000   166
58.2500   160
58.3000   172
58.3500   147
58.4000   129
58.4500   113
58.5000   106
58.5500   73
58.6000   66
58.6500   55
58.7000   46
58.7500   34
58.8000   36
58.8500   27
58.9000   24
58.9500   15
59.0000   13
59.0500   14
59.1000   16
59.1500   19
59.2000   10
59.2500   16
59.3000   14
59.3500   11
59.4000   17
59.4500   16
59.5000   13
59.5500   9
59.6000   18
59.6500   17
59.7000   11
59.7500   20
59.8000   10
59.8500   8
59.9000   12
59.9500   20
60.0000   13
60.0500   13
60.1000   14
60.1500   13
60.2000   14
60.2500   13
60.3000   17
60.3500   10
60.4000   10
60.4500   9
60.5000   14
60.5500   18
60.6000   17
60.6500   13
60.7000   13
60.7500   15
60.8000   17
60.8500   7
60.9000   11
60.9500   13
61.0000   16
61.0500   15
61.1000   18
61.1500   12
61.2000   12
61.2500   19
61.3000   20
61.3500   17
61.4000   12
61.4500   14
61.5000   12
61.5500   11
61.6000   12
61.6500   12
61.7000   12
61.7500   10
61.8000   11
61.8500   12
61.9000   19
61.9500   21
62.0000   16
62.0500   20
62.1000   17
62.1500   14
62.2000   20
62.2500   18
62.3000   15
62.3500   17
62.4000   11
62.4500   9
62.5000   11
62.5500   13
62.6000   21
62.6500   17
62.7000   9
62.7500   17
62.8000   18
62.8500   18
62.9000   23
62.9500   22
63.0000   24
63.0500   42
63.1000   20
63.1500   27
63.2000   29
63.2500   37
63.3000   61
63.3500   100
63.4000   114
63.4500   145
63.5000   193
63.5500   287
63.6000   419
63.6500   635
63.7000   951
63.7500   864
63.8000   553
63.8500   494
63.9000   479
63.9500   311
64.0000   155
64.0500   91
64.1000   66
64.1500   57
64.2000   21
64.2500   28
64.3000   26
64.3500   20
64.4000   17
64.4500   17
64.5000   19
64.5500   18
64.6000   18
64.6500   23
64.7000   16
64.7500   20
64.8000   19
64.8500   15
64.9000   15
64.9500   13
65.0000   16
65.0500   11
65.1000   12
65.1500   9
65.2000   12
65.2500   14
65.3000   10
65.3500   12
65.4000   17
65.4500   12
65.5000   7
65.5500   10
65.6000   15
65.6500   16
65.7000   14
65.7500   12
65.8000   16
65.8500   14
65.9000   16
65.9500   19
66.0000   13
66.0500   14
66.1000   15
66.1500   8
66.2000   14
66.2500   17
66.3000   12
66.3500   14
66.4000   10
66.4500   13
66.5000   4
66.5500   13
66.6000   13
66.6500   12
66.7000   9
66.7500   17
66.8000   29
66.8500   39
66.9000   45
66.9500   17
67.0000   17
67.0500   19
67.1000   19
67.1500   13
67.2000   7
67.2500   12
67.3000   14
67.3500   21
67.4000   11
67.4500   11
67.5000   13
67.5500   10
67.6000   12
67.6500   14
67.7000   11
67.7500   17
67.8000   9
67.8500   9
67.9000   17
67.9500   24
68.0000   16
68.0500   23
68.1000   21
68.1500   16
68.2000   24
68.2500   21
68.3000   17
68.3500   12
68.4000   17
68.4500   13
68.5000   13
68.5500   14
68.6000   20
68.6500   13
68.7000   14
68.7500   6
68.8000   18
68.8500   22
68.9000   14
68.9500   16
69.0000   11
69.0500   13
69.1000   9
69.1500   17
69.2000   10
69.2500   10
69.3000   20
69.3500   8
69.4000   11
69.4500   18
69.5000   15
69.5500   11
69.6000   10
69.6500   8
69.7000   17
69.7500   16
69.8000   12
69.8500   25
69.9000   15
69.9500   20
70.0000   18
