16.2650   5
16.2900   5
16.3150   0
16.3400   1
16.3650   2
16.3900   4
16.4150   1
16.4400   3
16.4650   0
16.4900   1
16.5150   1
16.5400   3
16.5650   2
16.5900   3
16.6150   3
16.6400   3
16.6650   1
16.6900   3
16.7150   0
16.7400   4
16.7650   2
16.7900   1
16.8150   1
16.8400   2
16.8650   1
16.8900   0
16.9150   1
16.9400   3
16.9650   2
16.9900   4
17.0150   5
17.0400   2
17.0650   2
17.0900   2
17.1150   3
17.1400   4
17.1650   1
17.1900   0
17.2150   0
17.2400   1
17.2650   3
17.2900   0
17.3150   3
17.3400   1
17.3650   4
17.3900   1
17.4150   4
17.4400   2
17.4650   2
17.4900   2
17.5150   3
17.5400   3
17.5650   6
17.5900   6
17.6150   7
17.6400   4
17.6650   2
17.6900   5
17.7150   9
17.7400   5
17.7650   4
17.7900   7
17.8150   10
17.8400   7
17.8650   6
17.8900   7
17.9150   11
17.9400   12
17.9650   8
17.9900   16
18.0150   9
18.0400   10
18.0650   10
18.0900   15
18.1150   15
18.1400   14
18.1650   28
18.1900   13
18.2150   23
18.2400   24
18.2650   27
18.2900   35
18.3150   43
18.3400   34
18.3650   35
18.3900   54
18.4150   71
18.4400   76
18.4650   100
18.4900   116
18.5150   137
18.5400   150
18.5650   217
18.5900   272
18.6150   382
18.6400   519
18.6650   715
18.6900   846
18.7150   1221
18.7400   1415
18.7650   1762
18.7900   2035
18.8150   2438
18.8400   2683
18.8650   3114
18.8900   3428
18.9150   3896
18.9400   4422
18.9650   4710
18.9900   4997
19.0150   5459
19.0400   5607
19.0650   6028
19.0900   6153
19.1150   6155
19.1400   6224
19.1650   6335
19.1900   6416
19.2150   6509
19.2400   6534
19.2650   6761
19.2900   6547
19.3150   6364
19.3400   6434
19.3650   6200
19.3900   6242
19.4150   5946
19.4400   5853
19.4650   5522
19.4900   5357
19.5150   5076
19.5400   4790
19.5650   4773
19.5900   4403
19.6150   4200
19.6400   3901
19.6650   3817
19.6900   3404
19.7150   3159
19.7400   2608
19.7650   2220
19.7900   1898
19.8150   1511
19.8400   1236
19.8650   919
19.8900   833
19.9150   518
19.9400   430
19.9650   319
19.9900   272
20.0150   187
20.0400   184
20.0650   133
20.0900   114
20.1150   107
20.1400   88
20.1650   68
20.1900   65
20.2150   74
20.2400   43
20.2650   45
20.2900   46
20.3150   30
20.3400   31
20.3650   18
20.3900   20
20.4150   11
20.4400   16
20.4650   13
20.4900   20
20.5150   12
20.5400   14
20.5650   15
20.5900   14
20.6150   7
20.6400   8
20.6650   9
20.6900   4
20.7150   11
20.7400   9
20.7650   8
20.7900   5
20.8150   4
20.8400   7
20.8650   5
20.8900   7
20.9150   3
20.9400   7
20.9650   3
20.9900   1
21.0150   3
21.0400   2
21.0650   2
21.0900   3
21.1150   5
21.1400   0
21.1650   6
21.1900   4
21.2150   5
21.2400   2
21.2650   6
21.2900   5
21.3150   4
21.3400   2
21.3650   3
21.3900   2
21.4150   4
21.4400   0
21.4650   1
21.4900   1
21.5150   4
21.5400   3
21.5650   0
21.5900   2
21.6150   1
21.6400   3
21.6650   0
21.6900   1
21.7150   0
21.7400   7
21.7650   1
21.7900   0
21.8150   2
21.8400   3
21.8650   1
21.8900   5
21.9150   6
21.9400   2
21.9650   2
21.9900   1
22.0150   5
22.0400   2
22.0650   1
22.0900   2
22.1150   1
22.1400   3
22.1650   0
22.1900   0
22.2150   1
22.2400   1
22.2650   1
