16.2650   1
16.2900   1
16.3150   0
16.3400   3
16.3650   2
16.3900   2
16.4150   1
16.4400   5
16.4650   0
16.4900   6
16.5150   1
16.5400   0
16.5650   4
16.5900   3
16.6150   1
16.6400   3
16.6650   1
16.6900   1
16.7150   1
16.7400   2
16.7650   2
16.7900   2
16.8150   4
16.8400   1
16.8650   2
16.8900   3
16.9150   3
16.9400   1
16.9650   4
16.9900   3
17.0150   3
17.0400   6
17.0650   4
17.0900   6
17.1150   4
17.1400   3
17.1650   3
17.1900   3
17.2150   2
17.2400   3
17.2650   4
17.2900   4
17.3150   6
17.3400   8
17.3650   5
17.3900   3
17.4150   5
17.4400   8
17.4650   4
17.4900   4
17.5150   2
17.5400   5
17.5650   4
17.5900   5
17.6150   3
17.6400   3
17.6650   6
17.6900   5
17.7150   7
17.7400   7
17.7650   10
17.7900   10
17.8150   5
17.8400   7
17.8650   12
17.8900   7
17.9150   7
17.9400   11
17.9650   24
17.9900   11
18.0150   11
18.0400   12
18.0650   12
18.0900   16
18.1150   14
18.1400   22
18.1650   26
18.1900   29
18.2150   18
18.2400   26
18.2650   40
18.2900   52
18.3150   51
18.3400   65
18.3650   74
18.3900   68
18.4150   86
18.4400   104
18.4650   130
18.4900   142
18.5150   184
18.5400   258
18.5650   317
18.5900   454
18.6150   639
18.6400   876
18.6650   1237
18.6900   1444
18.7150   1830
18.7400   2112
18.7650   2448
18.7900   2733
18.8150   3167
18.8400   3616
18.8650   3961
18.8900   4538
18.9150   4806
18.9400   5294
18.9650   5738
18.9900   6627
19.0150   7212
19.0400   7856
19.0650   8547
19.0900   9237
19.1150   10119
19.1400   10525
19.1650   11081
19.1900   11348
19.2150   11735
19.2400   11637
19.2650   11783
19.2900   11318
19.3150   11068
19.3400   10681
19.3650   9758
19.3900   9440
19.4150   8586
19.4400   7848
19.4650   7218
19.4900   6475
19.5150   5556
19.5400   4803
19.5650   4238
19.5900   3744
19.6150   3319
19.6400   2783
19.6650   2413
19.6900   2061
19.7150   1576
19.7400   1274
19.7650   982
19.7900   783
19.8150   560
19.8400   423
19.8650   328
19.8900   261
19.9150   234
19.9400   163
19.9650   132
19.9900   121
20.0150   89
20.0400   81
20.0650   77
20.0900   65
20.1150   53
20.1400   47
20.1650   41
20.1900   44
20.2150   40
20.2400   37
20.2650   26
20.2900   24
20.3150   23
20.3400   15
20.3650   22
20.3900   28
20.4150   17
20.4400   13
20.4650   12
20.4900   12
20.5150   18
20.5400   13
20.5650   11
20.5900   9
20.6150   10
20.6400   9
20.6650   4
20.6900   7
20.7150   6
20.7400   6
20.7650   9
20.7900   10
20.8150   5
20.8400   9
20.8650   4
20.8900   2
20.9150   9
20.9400   4
20.9650   2
20.9900   1
21.0150   7
21.0400   2
21.0650   7
21.0900   3
21.1150   6
21.1400   6
21.1650   4
21.1900   5
21.2150   5
21.2400   1
21.2650   3
21.2900   3
21.3150   2
21.3400   2
21.3650   2
21.3900   1
21.4150   6
21.4400   3
21.4650   1
21.4900   6
21.5150   3
21.5400   5
21.5650   3
21.5900   3
21.6150   5
21.6400   5
21.6650   1
21.6900   3
21.7150   4
21.7400   2
21.7650   1
21.7900   2
21.8150   0
21.8400   2
21.8650   4
21.8900   1
21.9150   3
21.9400   5
21.9650   5
21.9900   4
22.0150   4
22.0400   0
22.0650   0
22.0900   4
22.1150   2
22.1400   2
22.1650   1
22.1900   2
22.2150   0
22.2400   2
22.2650   0
