10.0000   84
10.0500   80
10.1000   115
10.1500   88
10.2000   86
10.2500   83
10.3000   102
10.3500   93
10.4000   79
10.4500   81
10.5000   69
10.5500   97
10.6000   74
10.6500   76
10.7000   79
10.7500   96
10.8000   76
10.8500   63
10.9000   76
10.9500   79
11.0000   83
11.0500   83
11.1000   81
11.1500   78
11.2000   90
11.2500   84
11.3000   97
11.3500   97
11.4000   69
11.4500   83
11.5000   83
11.5500   112
11.6000   121
11.6500   123
11.7000   142
11.7500   162
11.8000   125
11.8500   141
11.9000   142
11.9500   140
12.0000   102
12.0500   128
12.1000   84
12.1500   97
12.2000   84
12.2500   95
12.3000   66
12.3500   86
12.4000   91
12.4500   77
12.5000   84
12.5500   68
12.6000   72
12.6500   78
12.7000   63
12.7500   70
12.8000   86
12.8500   67
12.9000   82
12.9500   81
13.0000   75
13.0500   68
13.1000   57
13.1500   86
13.2000   61
13.2500   67
13.3000   92
13.3500   65
13.4000   60
13.4500   79
13.5000   65
13.5500   81
13.6000   92
13.6500   75
13.7000   109
13.7500   82
13.8000   91
13.8500   86
13.9000   92
13.9500   82
14.0000   104
14.0500   96
14.1000   97
14.1500   121
14.2000   124
14.2500   107
14.3000   118
14.3500   130
14.4000   138
14.4500   152
14.5000   186
14.5500   194
14.6000   257
14.6500   243
14.7000   270
14.7500   337
14.8000   435
14.8500   571
14.9000   987
14.9500   1738
15.0000   2413
15.0500   4048
15.1000   9356
15.1500   37248
15.2000   74109
15.2500   41321
15.3000   7715
15.3500   2970
15.4000   2036
15.4500   1349
15.5000   736
15.5500   513
15.6000   345
15.6500   253
15.7000   213
15.7500   154
15.8000   131
15.8500   109
15.9000   96
15.9500   76
16.0000   70
16.0500   77
16.1000   73
16.1500   74
16.2000   70
16.2500   51
16.3000   67
16.3500   59
16.4000   46
16.4500   51
16.5000   48
16.5500   55
16.6000   46
16.6500   50
16.7000   51
16.7500   57
16.8000   45
16.8500   57
16.9000   42
16.9500   61
17.0000   57
17.0500   53
17.1000   45
17.1500   51
17.2000   59
17.2500   44
17.3000   41
17.3500   42
17.4000   41
17.4500   35
17.5000   50
17.5500   41
17.6000   48
17.6500   42
17.7000   37
17.7500   38
17.8000   45
17.8500   39
17.9000   46
17.9500   44
18.0000   52
18.0500   44
18.1000   38
18.1500   43
18.2000   44
18.2500   36
18.3000   49
18.3500   38
18.4000   34
18.4500   35
18.5000   47
18.5500   43
18.6000   31
18.6500   40
18.7000   37
18.7500   49
18.8000   41
18.8500   35
18.9000   32
18.9500   39
19.0000   45
19.0500   53
19.1000   33
19.1500   47
19.2000   41
19.2500   48
19.3000   43
19.3500   49
19.4000   41
19.4500   41
19.5000   37
19.5500   44
19.6000   40
19.6500   31
19.7000   24
19.7500   39
19.8000   39
19.8500   37
19.9000   27
19.9500   46
20.0000   36
20.0500   37
20.1000   49
20.1500   45
20.2000   42
20.2500   38
20.3000   31
20.3500   34
20.4000   37
20.4500   37
20.5000   39
20.5500   56
20.6000   66
20.6500   68
20.7000   56
20.7500   48
20.8000   41
20.8500   38
20.9000   41
20.9500   50
21.0000   69
21.0500   62
21.1000   61
21.1500   116
21.2000   261
21.2500   107
21.3000   68
21.3500   63
21.4000   72
21.4500   76
21.5000   73
21.5500   78
21.6000   93
21.6500   94
21.7000   91
21.7500   114
21.8000   104
21.8500   166
21.9000   197
21.9500   159
22.0000   178
22.0500   221
22.1000   254
22.1500   283
22.2000   318
22.2500   411
22.3000   509
22.3500   596
22.4000   744
22.4500   1039
22.5000   1578
22.5500   2289
22.6000   3785
22.6500   6298
22.7000   10929
22.7500   24325
22.8000   64142
22.8500   106914
22.9000   94750
22.9500   46450
23.0000   14962
23.0500   9256
23.1000   7630
23.1500   6960
23.2000   8868
23.2500   13951
23.3000   18363
23.3500   29160
23.4000   52079
23.4500   94330
23.5000   97304
23.5500   94189
23.6000   80251
23.6500   43688
23.7000   34970
23.7500   22388
23.8000   12775
23.8500   6644
23.9000   3831
23.9500   2671
24.0000   2083
24.0500   1586
24.1000   1339
24.1500   1096
24.2000   941
24.2500   776
24.3000   655
24.3500   541
24.4000   498
24.4500   410
24.5000   393
24.5500   334
24.6000   314
24.6500   287
24.7000   251
24.7500   258
24.8000   244
24.8500   242
24.9000   222
24.9500   197
25.0000   205
25.0500   171
25.1000   177
25.1500   146
25.2000   151
25.2500   154
25.3000   148
25.3500   133
25.4000   112
25.4500   118
25.5000   110
25.5500   101
25.6000   118
25.6500   99
25.7000   90
25.7500   83
25.8000   99
25.8500   83
25.9000   94
25.9500   62
26.0000   57
26.0500   77
26.1000   74
26.1500   58
26.2000   59
26.2500   60
26.3000   54
26.3500   55
26.4000   55
26.4500   58
26.5000   54
26.5500   58
26.6000   57
26.6500   70
26.7000   64
26.7500   66
26.8000   50
26.8500   64
26.9000   55
26.9500   63
27.0000   53
27.0500   53
27.1000   59
27.1500   60
27.2000   54
27.2500   62
27.3000   62
27.3500   61
27.4000   44
27.4500   53
27.5000   44
27.5500   56
27.6000   58
27.6500   41
27.7000   42
27.7500   50
27.8000   35
27.8500   48
27.9000   46
27.9500   47
28.0000   54
28.0500   51
28.1000   59
28.1500   36
28.2000   41
28.2500   39
28.3000   50
28.3500   31
28.4000   54
28.4500   32
28.5000   60
28.5500   51
28.6000   32
28.6500   35
28.7000   40
28.7500   47
28.8000   37
28.8500   34
28.9000   41
28.9500   39
29.0000   46
29.0500   32
29.1000   26
29.1500   47
29.2000   36
29.2500   53
29.3000   44
29.3500   31
29.4000   44
29.4500   47
29.5000   44
29.5500   41
29.6000   38
29.6500   38
29.7000   37
29.7500   45
29.8000   45
29.8500   67
29.9000   72
29.9500   53
30.0000   61
30.0500   78
30.1000   74
30.1500   96
30.2000   114
30.2500   179
30.3000   260
30.3500   427
30.4000   672
30.4500   1164
30.5000   2322
30.5500   5429
30.6000   13251
30.6500   13103
30.7000   8786
30.7500   3545
30.8000   1303
30.8500   757
30.9000   494
30.9500   391
31.0000   283
31.0500   237
31.1000   196
31.1500   178
31.2000   158
31.2500   173
31.3000   167
31.3500   148
31.4000   178
31.4500   174
31.5000   199
31.5500   200
31.6000   197
31.6500   163
31.7000   168
31.7500   135
31.8000   132
31.8500   126
31.9000   99
31.9500   85
32.0000   92
32.0500   99
32.1000   82
32.1500   79
32.2000   90
32.2500   75
32.3000   71
32.3500   72
32.4000   80
32.4500   90
32.5000   80
32.5500   81
32.6000   70
32.6500   89
32.7000   78
32.7500   72
32.8000   68
32.8500   67
32.9000   83
32.9500   73
33.0000   75
33.0500   78
33.1000   67
33.1500   77
33.2000   72
33.2500   88
33.3000   95
33.3500   95
33.4000   114
33.4500   90
33.5000   137
33.5500   142
33.6000   123
33.6500   157
33.7000   190
33.7500   209
33.8000   215
33.8500   245
33.9000   284
33.9500   285
34.0000   270
34.0500   262
34.1000   268
34.1500   264
34.2000   215
34.2500   198
34.3000   186
34.3500   160
34.4000   190
34.4500   129
34.5000   137
34.5500   149
34.6000   149
34.6500   127
34.7000   150
34.7500   112
34.8000   112
34.8500   110
34.9000   114
34.9500   111
35.0000   127
35.0500   147
35.1000   126
35.1500   136
35.2000   127
35.2500   143
35.3000   147
35.3500   133
35.4000   146
35.4500   179
35.5000   158
35.5500   161
35.6000   145
35.6500   148
35.7000   137
35.7500   109
35.8000   99
35.8500   105
35.9000   109
35.9500   111
36.0000   86
36.0500   84
36.1000   89
36.1500   102
36.2000   102
36.2500   103
36.3000   81
36.3500   103
36.4000   73
36.4500   100
36.5000   104
36.5500   110
36.6000   119
36.6500   115
36.7000   124
36.7500   121
36.8000   103
36.8500   105
36.9000   141
36.9500   109
37.0000   114
37.0500   142
37.1000   148
37.1500   159
37.2000   145
37.2500   166
37.3000   177
37.3500   210
37.4000   199
37.4500   262
37.5000   237
37.5500   304
37.6000   351
37.6500   382
37.7000   450
37.7500   442
37.8000   563
37.8500   700
37.9000   838
37.9500   935
38.0000   1133
38.0500   1505
38.1000   1944
38.1500   2750
38.2000   4163
38.2500   6683
38.3000   10632
38.3500   18009
38.4000   29802
38.4500   53890
38.5000   92954
38.5500   104879
38.6000   85172
38.6500   68570
38.7000   32597
38.7500   13866
38.8000   7980
38.8500   5255
38.9000   3602
38.9500   2371
39.0000   1829
39.0500   1372
39.1000   1135
39.1500   939
39.2000   776
39.2500   709
39.3000   554
39.3500   519
39.4000   404
39.4500   362
39.5000   321
39.5500   286
39.6000   279
39.6500   210
39.7000   201
39.7500   200
39.8000   158
39.8500   129
39.9000   129
39.9500   116
40.0000   104
40.0500   109
40.1000   91
40.1500   81
40.2000   98
40.2500   77
40.3000   90
40.3500   100
40.4000   91
40.4500   98
40.5000   116
40.5500   105
40.6000   102
40.6500   116
40.7000   101
40.7500   106
40.8000   82
40.8500   75
40.9000   64
40.9500   55
41.0000   57
41.0500   47
41.1000   47
41.1500   41
41.2000   54
41.2500   38
41.3000   40
41.3500   34
41.4000   25
41.4500   20
41.5000   31
41.5500   24
41.6000   22
41.6500   35
41.7000   32
41.7500   26
41.8000   32
41.8500   46
41.9000   49
41.9500   43
42.0000   35
42.0500   35
42.1000   28
42.1500   25
42.2000   23
42.2500   22
42.3000   25
42.3500   24
42.4000   35
42.4500   39
42.5000   36
42.5500   25
42.6000   28
42.6500   35
42.7000   45
42.7500   23
42.8000   28
42.8500   21
42.9000   36
42.9500   36
43.0000   37
43.0500   75
43.1000   200
43.1500   209
43.2000   89
43.2500   50
43.3000   42
43.3500   42
43.4000   36
43.4500   43
43.5000   48
43.5500   44
43.6000   46
43.6500   53
43.7000   46
43.7500   44
43.8000   36
43.8500   41
43.9000   48
43.9500   56
44.0000   46
44.0500   44
44.1000   52
44.1500   40
44.2000   62
44.2500   60
44.3000   64
44.3500   50
44.4000   86
44.4500   73
44.5000   77
44.5500   91
44.6000   118
44.6500   114
44.7000   102
44.7500   117
44.8000   115
44.8500   114
44.9000   121
44.9500   149
45.0000   156
45.0500   144
45.1000   181
45.1500   180
45.2000   211
45.2500   255
45.3000   253
45.3500   276
45.4000   304
45.4500   319
45.5000   404
45.5500   444
45.6000   452
45.6500   539
45.7000   579
45.7500   669
45.8000   788
45.8500   971
45.9000   1230
45.9500   1257
46.0000   1396
46.0500   1635
46.1000   2066
46.1500   2632
46.2000   3621
46.2500   5106
46.3000   7352
46.3500   11218
46.4000   17041
46.4500   26266
46.5000   39521
46.5500   63944
46.6000   99190
46.6500   111447
46.7000   99547
46.7500   88185
46.8000   71047
46.8500   34736
46.9000   17750
46.9500   11499
47.0000   8180
47.0500   6100
47.1000   4991
47.1500   4311
47.2000   4105
47.2500   3932
47.3000   3853
47.3500   4043
47.4000   4079
47.4500   4419
47.5000   4873
47.5500   5465
47.6000   6622
47.6500   8303
47.7000   13517
47.7500   26046
47.8000   34020
47.8500   42871
47.9000   74791
47.9500   95291
48.0000   99064
48.0500   96321
48.1000   98973
48.1500   94406
48.2000   73625
48.2500   42451
48.3000   29666
48.3500   19412
48.4000   11821
48.4500   7700
48.5000   5349
48.5500   4197
48.6000   3607
48.6500   3039
48.7000   2624
48.7500   2177
48.8000   1911
48.8500   1807
48.9000   1456
48.9500   1313
49.0000   1212
49.0500   1055
49.1000   956
49.1500   865
49.2000   769
49.2500   660
49.3000   571
49.3500   543
49.4000   463
49.4500   456
49.5000   386
49.5500   372
49.6000   328
49.6500   263
49.7000   254
49.7500   233
49.8000   247
49.8500   190
49.9000   167
49.9500   177
50.0000   177
50.0500   142
50.1000   140
50.1500   123
50.2000   99
50.2500   105
50.3000   102
50.3500   111
50.4000   108
50.4500   87
50.5000   80
50.5500   75
50.6000   80
50.6500   65
50.7000   61
50.7500   67
50.8000   66
50.8500   54
50.9000   65
50.9500   59
51.0000   55
51.0500   72
51.1000   63
51.1500   52
51.2000   61
51.2500   50
51.3000   43
51.3500   57
51.4000   50
51.4500   47
51.5000   51
51.5500   48
51.6000   50
51.6500   49
51.7000   43
51.7500   43
51.8000   43
51.8500   48
51.9000   49
51.9500   42
52.0000   45
52.0500   41
52.1000   38
52.1500   42
52.2000   48
52.2500   34
52.3000   35
52.3500   30
52.4000   40
52.4500   42
52.5000   42
52.5500   34
52.6000   40
52.6500   44
52.7000   37
52.7500   35
52.8000   22
52.8500   45
52.9000   51
52.9500   45
53.0000   45
53.0500   45
53.1000   38
53.1500   48
53.2000   54
53.2500   60
53.3000   53
53.3500   56
53.4000   52
53.4500   58
53.5000   64
53.5500   69
53.6000   67
53.6500   75
53.7000   80
53.7500   80
53.8000   105
53.8500   97
53.9000   90
53.9500   100
54.0000   110
54.0500   125
54.1000   119
54.1500   147
54.2000   157
54.2500   170
54.3000   200
54.3500   252
54.4000   289
54.4500   356
54.5000   480
54.5500   634
54.6000   838
54.6500   1223
54.7000   1685
54.7500   2486
54.8000   3556
54.8500   5189
54.9000   8421
54.9500   14118
55.0000   21472
55.0500   19300
55.1000   13004
55.1500   12388
55.2000   9257
55.2500   4070
55.3000   2071
55.3500   1244
55.4000   878
55.4500   577
55.5000   413
55.5500   302
55.6000   262
55.6500   212
55.7000   167
55.7500   144
55.8000   118
55.8500   109
55.9000   106
55.9500   96
56.0000   68
56.0500   77
56.1000   67
56.1500   48
56.2000   48
56.2500   56
56.3000   44
56.3500   45
56.4000   46
56.4500   46
56.5000   45
56.5500   43
56.6000   32
56.6500   50
56.7000   30
56.7500   21
56.8000   28
56.8500   32
56.9000   33
56.9500   21
57.0000   32
57.0500   23
57.1000   31
57.1500   31
57.2000   17
57.2500   19
57.3000   15
57.3500   24
57.4000   30
57.4500   29
57.5000   28
57.5500   27
57.6000   23
57.6500   39
57.7000   26
57.7500   36
57.8000   48
57.8500   64
57.9000   61
57.9500   83
58.0000   96
58.0500   102
58.1000   140
58.1500   146
58.2000   169
58.2500   156
58.3000   167
58.3500   141
58.4000   125
58.4500   131
58.5000   117
58.5500   81
58.6000   54
58.6500   60
58.7000   41
58.7500   44
58.8000   30
58.8500   28
58.9000   23
58.9500   22
59.0000   13
59.0500   15
59.1000   19
59.1500   21
59.2000   16
59.2500   13
59.3000   12
59.3500   16
59.4000   11
59.4500   19
59.5000   11
59.5500   10
59.6000   17
59.6500   9
59.7000   15
59.7500   12
59.8000   11
59.8500   10
59.9000   13
59.9500   11
60.0000   19
60.0500   9
60.1000   12
60.1500   5
60.2000   7
60.2500   10
60.3000   11
60.3500   18
60.4000   11
60.4500   13
60.5000   6
60.5500   10
60.6000   9
60.6500   10
60.7000   15
60.7500   11
60.8000   22
60.8500   15
60.9000   12
60.9500   11
61.0000   19
61.0500   21
61.1000   13
61.1500   17
61.2000   18
61.2500   9
61.3000   13
61.3500   12
61.4000   19
61.4500   13
61.5000   19
61.5500   19
61.6000   13
61.6500   20
61.7000   16
61.7500   16
61.8000   9
61.8500   17
61.9000   20
61.9500   21
62.0000   11
62.0500   7
62.1000   18
62.1500   19
62.2000   14
62.2500   9
62.3000   8
62.3500   19
62.4000   14
62.4500   14
62.5000   23
62.5500   14
62.6000   17
62.6500   10
62.7000   15
62.7500   19
62.8000   5
62.8500   12
62.9000   17
62.9500   21
63.0000   22
63.0500   27
63.1000   20
63.1500   30
63.2000   31
63.2500   48
63.3000   54
63.3500   53
63.4000   79
63.4500   106
63.5000   141
63.5500   202
63.6000   378
63.6500   513
63.7000   730
63.7500   702
63.8000   464
63.8500   392
63.9000   396
63.9500   257
64.0000   148
64.0500   93
64.1000   51
64.1500   33
64.2000   26
64.2500   21
64.3000   23
64.3500   20
64.4000   16
64.4500   17
64.5000   19
64.5500   15
64.6000   11
64.6500   19
64.7000   9
64.7500   9
64.8000   14
64.8500   16
64.9000   13
64.9500   16
65.0000   10
65.0500   14
65.1000   11
65.1500   12
65.2000   18
65.2500   11
65.3000   16
65.3500   23
65.4000   9
65.4500   6
65.5000   11
65.5500   10
65.6000   15
65.6500   13
65.7000   12
65.7500   20
65.8000   15
65.8500   23
65.9000   23
65.9500   11
66.0000   17
66.0500   21
66.1000   10
66.1500   15
66.2000   9
66.2500   16
66.3000   13
66.3500   23
66.4000   11
66.4500   12
66.5000   15
66.5500   13
66.6000   8
66.6500   8
66.7000   5
66.7500   13
66.8000   19
66.8500   20
66.9000   36
66.9500   33
67.0000   15
67.0500   18
67.1000   10
67.1500   14
67.2000   7
67.2500   13
67.3000   15
67.3500   17
67.4000   7
67.4500   9
67.5000   13
67.5500   17
67.6000   11
67.6500   10
67.7000   15
67.7500   9
67.8000   21
67.8500   13
67.9000   15
67.9500   10
68.0000   21
68.0500   14
68.1000   19
68.1500   16
68.2000   15
68.2500   17
68.3000   14
68.3500   17
68.4000   19
68.4500   14
68.5000   15
68.5500   13
68.6000   12
68.6500   9
68.7000   14
68.7500   18
68.8000   10
68.8500   12
68.9000   10
68.9500   13
69.0000   11
69.0500   14
69.1000   11
69.1500   8
69.2000   17
69.2500   11
69.3000   16
69.3500   11
69.4000   14
69.4500   10
69.5000   8
69.5500   17
69.6000   12
69.6500   12
69.7000   25
69.7500   13
69.8000   15
69.8500   21
69.9000   22
69.9500   13
70.0000   16
