10.0000   81
10.0500   97
10.1000   80
10.1500   98
10.2000   70
10.2500   78
10.3000   88
10.3500   80
10.4000   78
10.4500   91
10.5000   96
10.5500   82
10.6000   83
10.6500   69
10.7000   87
10.7500   93
10.8000   73
10.8500   92
10.9000   70
10.9500   80
11.0000   75
11.0500   90
11.1000   87
11.1500   103
11.2000   75
11.2500   82
11.3000   83
11.3500   83
11.4000   84
11.4500   90
11.5000   88
11.5500   112
11.6000   148
11.6500   159
11.7000   153
11.7500   154
11.8000   148
11.8500   154
11.9000   145
11.9500   144
12.0000   137
12.0500   130
12.1000   132
12.1500   117
12.2000   107
12.2500   101
12.3000   86
12.3500   98
12.4000   87
12.4500   95
12.5000   82
12.5500   73
12.6000   68
12.6500   91
12.7000   85
12.7500   64
12.8000   67
12.8500   70
12.9000   63
12.9500   84
13.0000   72
13.0500   78
13.1000   85
13.1500   80
13.2000   71
13.2500   79
13.3000   93
13.3500   70
13.4000   76
13.4500   78
13.5000   84
13.5500   105
13.6000   80
13.6500   89
13.7000   93
13.7500   91
13.8000   85
13.8500   123
13.9000   105
13.9500   98
14.0000   117
14.0500   101
14.1000   114
14.1500   120
14.2000   135
14.2500   141
14.3000   155
14.3500   145
14.4000   181
14.4500   201
14.5000   182
14.5500   218
14.6000   236
14.6500   283
14.7000   322
14.7500   357
14.8000   454
14.8500   678
14.9000   1112
14.9500   1865
15.0000   2696
15.0500   4226
15.1000   9606
15.1500   40846
15.2000   78431
15.2500   43516
15.3000   7931
15.3500   3047
15.4000   1949
15.4500   1147
15.5000   708
15.5500   448
15.6000   341
15.6500   304
15.7000   225
15.7500   175
15.8000   118
15.8500   124
15.9000   98
15.9500   73
16.0000   80
16.0500   72
16.1000   83
16.1500   77
16.2000   66
16.2500   67
16.3000   58
16.3500   57
16.4000   54
16.4500   51
16.5000   39
16.5500   47
16.6000   63
16.6500   62
16.7000   60
16.7500   39
16.8000   46
16.8500   59
16.9000   52
16.9500   54
17.0000   52
17.0500   47
17.1000   44
17.1500   59
17.2000   39
17.2500   45
17.3000   33
17.3500   45
17.4000   48
17.4500   39
17.5000   51
17.5500   54
17.6000   34
17.6500   41
17.7000   50
17.7500   37
17.8000   46
17.8500   50
17.9000   43
17.9500   46
18.0000   43
18.0500   31
18.1000   39
18.1500   30
18.2000   45
18.2500   43
18.3000   43
18.3500   40
18.4000   50
18.4500   47
18.5000   49
18.5500   36
18.6000   35
18.6500   40
18.7000   39
18.7500   40
18.8000   41
18.8500   43
18.9000   33
18.9500   53
19.0000   37
19.0500   42
19.1000   54
19.1500   36
19.2000   42
19.2500   41
19.3000   40
19.3500   37
19.4000   50
19.4500   48
19.5000   51
19.5500   36
19.6000   35
19.6500   43
19.7000   44
19.7500   41
19.8000   42
19.8500   35
19.9000   36
19.9500   34
20.0000   39
20.0500   49
20.1000   39
20.1500   35
20.2000   28
20.2500   27
20.3000   49
20.3500   39
20.4000   39
20.4500   41
20.5000   31
20.5500   42
20.6000   78
20.6500   65
20.7000   48
20.7500   51
20.8000   39
20.8500   45
20.9000   40
20.9500   60
21.0000   63
21.0500   65
21.1000   59
21.1500   114
21.2000   417
21.2500   149
21.3000   93
21.3500   68
21.4000   75
21.4500   81
21.5000   80
21.5500   88
21.6000   81
21.6500   133
21.7000   137
21.7500   160
21.8000   170
21.8500   179
21.9000   228
21.9500   197
22.0000   256
22.0500   267
22.1000   312
22.1500   377
22.2000   417
22.2500   508
22.3000   634
22.3500   798
22.4000   950
22.4500   1294
22.5000   1898
22.5500   2997
22.6000   4878
22.6500   7925
22.7000   13250
22.7500   28251
22.8000   74285
22.8500   108846
22.9000   103873
22.9500   55290
23.0000   17461
23.0500   11257
23.1000   9592
23.1500   9957
23.2000   18036
23.2500   31787
23.3000   40752
23.3500   54148
23.4000   81772
23.4500   94441
23.5000   91565
23.5500   95095
23.6000   97909
23.6500   45476
23.7000   28004
23.7500   15751
23.8000   10056
23.8500   7043
23.9000   5639
23.9500   4316
24.0000   3509
24.0500   2850
24.1000   2375
24.1500   1871
24.2000   1579
24.2500   1297
24.3000   1045
24.3500   859
24.4000   784
24.4500   649
24.5000   557
24.5500   503
24.6000   455
24.6500   412
24.7000   348
24.7500   338
24.8000   301
24.8500   286
24.9000   267
24.9500   262
25.0000   222
25.0500   215
25.1000   212
25.1500   195
25.2000   165
25.2500   161
25.3000   167
25.3500   178
25.4000   168
25.4500   130
25.5000   142
25.5500   136
25.6000   133
25.6500   114
25.7000   130
25.7500   120
25.8000   99
25.8500   97
25.9000   94
25.9500   86
26.0000   87
26.0500   87
26.1000   94
26.1500   83
26.2000   76
26.2500   89
26.3000   94
26.3500   70
26.4000   56
26.4500   79
26.5000   64
26.5500   58
26.6000   67
26.6500   68
26.7000   69
26.7500   60
26.8000   63
26.8500   57
26.9000   54
26.9500   56
27.0000   55
27.0500   62
27.1000   56
27.1500   54
27.2000   66
27.2500   62
27.3000   52
27.3500   53
27.4000   46
27.4500   56
27.5000   57
27.5500   60
27.6000   49
27.6500   69
27.7000   73
27.7500   37
27.8000   67
27.8500   58
27.9000   53
27.9500   68
28.0000   68
28.0500   63
28.1000   47
28.1500   62
28.2000   63
28.2500   59
28.3000   52
28.3500   55
28.4000   58
28.4500   61
28.5000   46
28.5500   53
28.6000   53
28.6500   46
28.7000   42
28.7500   44
28.8000   53
28.8500   45
28.9000   37
28.9500   47
29.0000   46
29.0500   56
29.1000   45
29.1500   35
29.2000   48
29.2500   46
29.3000   48
29.3500   48
29.4000   43
29.4500   43
29.5000   50
29.5500   50
29.6000   54
29.6500   49
29.7000   44
29.7500   49
29.8000   62
29.8500   70
29.9000   81
29.9500   79
30.0000   79
30.0500   97
30.1000   90
30.1500   116
30.2000   150
30.2500   217
30.3000   317
30.3500   510
30.4000   882
30.4500   1501
30.5000   2877
30.5500   6919
30.6000   17232
30.6500   17298
30.7000   11367
30.7500   4689
30.8000   1603
30.8500   846
30.9000   528
30.9500   453
31.0000   328
31.0500   299
31.1000   293
31.1500   264
31.2000   245
31.2500   205
31.3000   216
31.3500   234
31.4000   245
31.4500   251
31.5000   291
31.5500   309
31.6000   321
31.6500   245
31.7000   247
31.7500   207
31.8000   190
31.8500   183
31.9000   155
31.9500   160
32.0000   159
32.0500   144
32.1000   125
32.1500   115
32.2000   124
32.2500   115
32.3000   109
32.3500   101
32.4000   116
32.4500   84
32.5000   79
32.5500   102
32.6000   89
32.6500   88
32.7000   74
32.7500   88
32.8000   61
32.8500   93
32.9000   88
32.9500   86
33.0000   77
33.0500   86
33.1000   67
33.1500   90
33.2000   77
33.2500   102
33.3000   104
33.3500   113
33.4000   104
33.4500   129
33.5000   118
33.5500   161
33.6000   173
33.6500   183
33.7000   196
33.7500   227
33.8000   280
33.8500   291
33.9000   304
33.9500   313
34.0000   329
34.0500   293
34.1000   301
34.1500   305
34.2000   265
34.2500   242
34.3000   228
34.3500   186
34.4000   197
34.4500   164
34.5000   179
34.5500   166
34.6000   131
34.6500   150
34.7000   189
34.7500   168
34.8000   141
34.8500   157
34.9000   134
34.9500   152
35.0000   147
35.0500   150
35.1000   149
35.1500   167
35.2000   183
35.2500   184
35.3000   180
35.3500   163
35.4000   197
35.4500   184
35.5000   208
35.5500   185
35.6000   180
35.6500   188
35.7000   150
35.7500   151
35.8000   145
35.8500   119
35.9000   124
35.9500   128
36.0000   126
36.0500   122
36.1000   124
36.1500   94
36.2000   124
36.2500   124
36.3000   107
36.3500   97
36.4000   139
36.4500   134
36.5000   139
36.5500   117
36.6000   142
36.6500   154
36.7000   150
36.7500   143
36.8000   151
36.8500   177
36.9000   172
36.9500   170
37.0000   160
37.0500   161
37.1000   175
37.1500   189
37.2000   173
37.2500   219
37.3000   252
37.3500   249
37.4000   278
37.4500   345
37.5000   330
37.5500   385
37.6000   413
37.6500   470
37.7000   537
37.7500   658
37.8000   728
37.8500   849
37.9000   1020
37.9500   1170
38.0000   1433
38.0500   1934
38.1000   2414
38.1500   3411
38.2000   5217
38.2500   8474
38.3000   13957
38.3500   22914
38.4000   37413
38.4500   67103
38.5000   105756
38.5500   105153
38.6000   100211
38.6500   84743
38.7000   42076
38.7500   16623
38.8000   9493
38.8500   5855
38.9000   4036
38.9500   2817
39.0000   2172
39.0500   1702
39.1000   1350
39.1500   1204
39.2000   968
39.2500   850
39.3000   713
39.3500   625
39.4000   504
39.4500   452
39.5000   413
39.5500   415
39.6000   291
39.6500   276
39.7000   231
39.7500   215
39.8000   186
39.8500   169
39.9000   164
39.9500   129
40.0000   119
40.0500   123
40.1000   88
40.1500   97
40.2000   102
40.2500   112
40.3000   108
40.3500   121
40.4000   93
40.4500   120
40.5000   112
40.5500   114
40.6000   101
40.6500   108
40.7000   96
40.7500   104
40.8000   78
40.8500   80
40.9000   75
40.9500   69
41.0000   60
41.0500   65
41.1000   45
41.1500   46
41.2000   36
41.2500   45
41.3000   37
41.3500   42
41.4000   31
41.4500   31
41.5000   36
41.5500   33
41.6000   37
41.6500   35
41.7000   39
41.7500   35
41.8000   44
41.8500   50
41.9000   61
41.9500   78
42.0000   44
42.0500   36
42.1000   45
42.1500   32
42.2000   25
42.2500   33
42.3000   34
42.3500   35
42.4000   36
42.4500   35
42.5000   32
42.5500   32
42.6000   28
42.6500   34
42.7000   30
42.7500   41
42.8000   46
42.8500   33
42.9000   49
42.9500   51
43.0000   43
43.0500   69
43.1000   297
43.1500   359
43.2000   126
43.2500   61
43.3000   62
43.3500   50
43.4000   58
43.4500   50
43.5000   53
43.5500   55
43.6000   46
43.6500   40
43.7000   50
43.7500   54
43.8000   46
43.8500   58
43.9000   67
43.9500   57
44.0000   68
44.0500   50
44.1000   71
44.1500   66
44.2000   61
44.2500   75
44.3000   74
44.3500   81
44.4000   97
44.4500   84
44.5000   105
44.5500   123
44.6000   142
44.6500   169
44.7000   119
44.7500   141
44.8000   151
44.8500   162
44.9000   185
44.9500   168
45.0000   230
45.0500   225
45.1000   240
45.1500   291
45.2000   277
45.2500   296
45.3000   335
45.3500   382
45.4000   412
45.4500   414
45.5000   492
45.5500   556
45.6000   591
45.6500   644
45.7000   736
45.7500   863
45.8000   907
45.8500   1164
45.9000   1400
45.9500   1547
46.0000   1707
46.0500   2014
46.1000   2452
46.1500   3229
46.2000   4416
46.2500   6283
46.3000   9254
46.3500   14218
46.4000   22103
46.4500   33267
46.5000   50197
46.5500   79148
46.6000   105499
46.6500   94737
46.7000   103725
46.7500   101110
46.8000   87506
46.8500   44020
46.9000   21642
46.9500   13343
47.0000   9309
47.0500   6976
47.1000   5914
47.1500   5267
47.2000   5004
47.2500   4859
47.3000   4811
47.3500   5019
47.4000   5294
47.4500   5879
47.5000   6455
47.5500   7612
47.6000   9157
47.6500   12222
47.7000   24598
47.7500   46779
47.8000   58258
47.8500   68079
47.9000   97387
47.9500   95465
48.0000   91993
48.0500   93857
48.1000   95234
48.1500   95469
48.2000   87887
48.2500   48807
48.3000   31634
48.3500   20088
48.4000   13341
48.4500   10137
48.5000   8143
48.5500   6951
48.6000   6222
48.6500   5341
48.7000   4752
48.7500   4339
48.8000   3791
48.8500   3488
48.9000   2982
48.9500   2749
49.0000   2464
49.0500   2156
49.1000   2024
49.1500   1800
49.2000   1617
49.2500   1497
49.3000   1263
49.3500   1156
49.4000   1018
49.4500   943
49.5000   842
49.5500   760
49.6000   667
49.6500   583
49.7000   551
49.7500   525
49.8000   425
49.8500   355
49.9000   324
49.9500   345
50.0000   260
50.0500   263
50.1000   234
50.1500   203
50.2000   217
50.2500   192
50.3000   181
50.3500   162
50.4000   149
50.4500   127
50.5000   134
50.5500   125
50.6000   106
50.6500   109
50.7000   101
50.7500   112
50.8000   103
50.8500   98
50.9000   103
50.9500   86
51.0000   90
51.0500   70
51.1000   85
51.1500   70
51.2000   79
51.2500   68
51.3000   68
51.3500   61
51.4000   53
51.4500   57
51.5000   58
51.5500   78
51.6000   54
51.6500   66
51.7000   53
51.7500   60
51.8000   55
51.8500   55
51.9000   63
51.9500   62
52.0000   60
52.0500   49
52.1000   52
52.1500   57
52.2000   41
52.2500   43
52.3000   49
52.3500   40
52.4000   52
52.4500   53
52.5000   44
52.5500   39
52.6000   50
52.6500   40
52.7000   45
52.7500   52
52.8000   46
52.8500   47
52.9000   55
52.9500   49
53.0000   51
53.0500   58
53.1000   57
53.1500   47
53.2000   60
53.2500   69
53.3000   60
53.3500   84
53.4000   72
53.4500   73
53.5000   87
53.5500   86
53.6000   98
53.6500   100
53.7000   107
53.7500   100
53.8000   96
53.8500   111
53.9000   116
53.9500   130
54.0000   131
54.0500   135
54.1000   194
54.1500   162
54.2000   202
54.2500   220
54.3000   297
54.3500   345
54.4000   418
54.4500   519
54.5000   661
54.5500   827
54.6000   1141
54.6500   1581
54.7000   2284
54.7500   3371
54.8000   4629
54.8500   7146
54.9000   11284
54.9500   19127
55.0000   28665
55.0500   26028
55.1000   17382
55.1500   16966
55.2000   12581
55.2500   5444
55.3000   2553
55.3500   1477
55.4000   933
55.4500   645
55.5000   523
55.5500   364
55.6000   273
55.6500   240
55.7000   196
55.7500   186
55.8000   165
55.8500   155
55.9000   158
55.9500   121
56.0000   111
56.0500   100
56.1000   90
56.1500   80
56.2000   64
56.2500   60
56.3000   60
56.3500   63
56.4000   58
56.4500   51
56.5000   44
56.5500   37
56.6000   53
56.6500   34
56.7000   35
56.7500   40
56.8000   33
56.8500   37
56.9000   24
56.9500   27
57.0000   29
57.0500   25
57.1000   27
57.1500   24
57.2000   19
57.2500   24
57.3000   30
57.3500   29
57.4000   24
57.4500   30
57.5000   33
57.5500   43
57.6000   34
57.6500   32
57.7000   30
57.7500   35
57.8000   47
57.8500   53
57.9000   71
57.9500   58
58.0000   72
58.0500   94
58.1000   135
58.1500   131
58.2000   156
58.2500   174
58.3000   175
58.3500   147
58.4000   122
58.4500   115
58.5000   112
58.5500   94
58.6000   65
58.6500   55
58.7000   55
58.7500   38
58.8000   40
58.8500   29
58.9000   17
58.9500   23
59.0000   11
59.0500   26
59.1000   15
59.1500   20
59.2000   15
59.2500   13
59.3000   16
59.3500   18
59.4000   16
59.4500   17
59.5000   16
59.5500   14
59.6000   11
59.6500   7
59.7000   13
59.7500   17
59.8000   15
59.8500   16
59.9000   11
59.9500   14
60.0000   12
60.0500   15
60.1000   15
60.1500   12
60.2000   8
60.2500   12
60.3000   17
60.3500   20
60.4000   10
60.4500   16
60.5000   20
60.5500   19
60.6000   19
60.6500   14
60.7000   13
60.7500   12
60.8000   14
60.8500   16
60.9000   16
60.9500   23
61.0000   15
61.0500   18
61.1000   21
61.1500   13
61.2000   19
61.2500   13
61.3000   18
61.3500   19
61.4000   18
61.4500   25
61.5000   10
61.5500   17
61.6000   27
61.6500   23
61.7000   24
61.7500   21
61.8000   18
61.8500   27
61.9000   16
61.9500   16
62.0000   17
62.0500   21
62.1000   26
62.1500   24
62.2000   15
62.2500   16
62.3000   18
62.3500   21
62.4000   17
62.4500   20
62.5000   21
62.5500   20
62.6000   24
62.6500   18
62.7000   24
62.7500   15
62.8000   21
62.8500   24
62.9000   16
62.9500   23
63.0000   23
63.0500   35
63.1000   36
63.1500   36
63.2000   44
63.2500   52
63.3000   66
63.3500   77
63.4000   101
63.4500   147
63.5000   209
63.5500   313
63.6000   444
63.6500   683
63.7000   1000
63.7500   956
63.8000   668
63.8500   547
63.9000   537
63.9500   333
64.0000   167
64.0500   95
64.1000   62
64.1500   59
64.2000   27
64.2500   31
64.3000   23
64.3500   18
64.4000   24
64.4500   25
64.5000   23
64.5500   18
64.6000   25
64.6500   16
64.7000   18
64.7500   16
64.8000   20
64.8500   19
64.9000   18
64.9500   16
65.0000   13
65.0500   22
65.1000   14
65.1500   14
65.2000   10
65.2500   7
65.3000   16
65.3500   11
65.4000   8
65.4500   14
65.5000   12
65.5500   9
65.6000   19
65.6500   14
65.7000   16
65.7500   16
65.8000   10
65.8500   18
65.9000   15
65.9500   24
66.0000   17
66.0500   18
66.1000   17
66.1500   14
66.2000   12
66.2500   14
66.3000   11
66.3500   13
66.4000   17
66.4500   11
66.5000   10
66.5500   8
66.6000   6
66.6500   9
66.7000   18
66.7500   15
66.8000   16
66.8500   45
66.9000   61
66.9500   27
67.0000   18
67.0500   19
67.1000   12
67.1500   13
67.2000   14
67.2500   12
67.3000   8
67.3500   15
67.4000   9
67.4500   13
67.5000   12
67.5500   15
67.6000   19
67.6500   16
67.7000   11
67.7500   11
67.8000   16
67.8500   15
67.9000   12
67.9500   21
68.0000   20
68.0500   18
68.1000   21
68.1500   18
68.2000   20
68.2500   17
68.3000   11
68.3500   15
68.4000   13
68.4500   19
68.5000   14
68.5500   8
68.6000   8
68.6500   7
68.7000   9
68.7500   14
68.8000   13
68.8500   15
68.9000   6
68.9500   17
69.0000   12
69.0500   17
69.1000   9
69.1500   14
69.2000   16
69.2500   10
69.3000   14
69.3500   14
69.4000   16
69.4500   15
69.5000   19
69.5500   12
69.6000   24
69.6500   17
69.7000   12
69.7500   10
69.8000   20
69.8500   13
69.9000   13
69.9500   14
70.0000   20
