10.0000   60
10.0500   59
10.1000   62
10.1500   36
10.2000   63
10.2500   55
10.3000   55
10.3500   52
10.4000   51
10.4500   56
10.5000   48
10.5500   41
10.6000   57
10.6500   46
10.7000   41
10.7500   48
10.8000   44
10.8500   53
10.9000   44
10.9500   47
11.0000   60
11.0500   65
11.1000   59
11.1500   57
11.2000   52
11.2500   54
11.3000   58
11.3500   56
11.4000   76
11.4500   76
11.5000   131
11.5500   147
11.6000   164
11.6500   229
11.7000   268
11.7500   355
11.8000   393
11.8500   391
11.9000   358
11.9500   307
12.0000   289
12.0500   282
12.1000   221
12.1500   204
12.2000   165
12.2500   159
12.3000   135
12.3500   108
12.4000   85
12.4500   63
12.5000   81
12.5500   62
12.6000   70
12.6500   57
12.7000   43
12.7500   57
12.8000   45
12.8500   64
12.9000   51
12.9500   55
13.0000   45
13.0500   60
13.1000   47
13.1500   45
13.2000   53
13.2500   60
13.3000   56
13.3500   49
13.4000   45
13.4500   45
13.5000   53
13.5500   53
13.6000   53
13.6500   56
13.7000   66
13.7500   53
13.8000   61
13.8500   60
13.9000   52
13.9500   55
14.0000   77
14.0500   67
14.1000   69
14.1500   83
14.2000   83
14.2500   73
14.3000   83
14.3500   80
14.4000   106
14.4500   107
14.5000   118
14.5500   120
14.6000   143
14.6500   149
14.7000   182
14.7500   235
14.8000   295
14.8500   370
14.9000   556
14.9500   916
15.0000   1387
15.0500   2278
15.1000   4843
15.1500   18398
15.2000   42538
15.2500   27658
15.3000   5522
15.3500   2048
15.4000   1365
15.4500   920
15.5000   551
15.5500   339
15.6000   253
15.6500   155
15.7000   134
15.7500   86
15.8000   85
15.8500   71
15.9000   70
15.9500   64
16.0000   49
16.0500   58
16.1000   35
16.1500   51
16.2000   28
16.2500   46
16.3000   42
16.3500   40
16.4000   33
16.4500   30
16.5000   44
16.5500   44
16.6000   48
16.6500   37
16.7000   45
16.7500   29
16.8000   35
16.8500   35
16.9000   24
16.9500   27
17.0000   17
17.0500   34
17.1000   37
17.1500   45
17.2000   29
17.2500   24
17.3000   22
17.3500   24
17.4000   22
17.4500   26
17.5000   34
17.5500   32
17.6000   30
17.6500   29
17.7000   24
17.7500   32
17.8000   39
17.8500   30
17.9000   27
17.9500   31
18.0000   31
18.0500   29
18.1000   31
18.1500   27
18.2000   22
18.2500   28
18.3000   29
18.3500   33
18.4000   30
18.4500   32
18.5000   27
18.5500   16
18.6000   29
18.6500   26
18.7000   37
18.7500   41
18.8000   34
18.8500   26
18.9000   28
18.9500   46
19.0000   39
19.0500   53
19.1000   59
19.1500   34
19.2000   54
19.2500   43
19.3000   53
19.3500   49
19.4000   43
19.4500   48
19.5000   45
19.5500   52
19.6000   36
19.6500   32
19.7000   35
19.7500   33
19.8000   35
19.8500   30
19.9000   22
19.9500   33
20.0000   22
20.0500   22
20.1000   26
20.1500   39
20.2000   23
20.2500   40
20.3000   25
20.3500   24
20.4000   23
20.4500   18
20.5000   39
20.5500   27
20.6000   39
20.6500   60
20.7000   19
20.7500   29
20.8000   24
20.8500   31
20.9000   19
20.9500   21
21.0000   32
21.0500   56
21.1000   36
21.1500   66
21.2000   222
21.2500   121
21.3000   47
21.3500   43
21.4000   66
21.4500   58
21.5000   50
21.5500   55
21.6000   53
21.6500   63
21.7000   68
21.7500   67
21.8000   91
21.8500   109
21.9000   136
21.9500   113
22.0000   145
22.0500   163
22.1000   182
22.1500   198
22.2000   238
22.2500   271
22.3000   348
22.3500   466
22.4000   524
22.4500   637
22.5000   1039
22.5500   1389
22.6000   2246
22.6500   3544
22.7000   6360
22.7500   13105
22.8000   33261
22.8500   61422
22.9000   57653
22.9500   30662
23.0000   10254
23.0500   6517
23.1000   5729
23.1500   5440
23.2000   6498
23.2500   10696
23.3000   15602
23.3500   22969
23.4000   37701
23.4500   76902
23.5000   86941
23.5500   82939
23.6000   64191
23.6500   30165
23.7000   24308
23.7500   17092
23.8000   10108
23.8500   5293
23.9000   3201
23.9500   2171
24.0000   1751
24.0500   1394
24.1000   1109
24.1500   989
24.2000   823
24.2500   682
24.3000   642
24.3500   534
24.4000   469
24.4500   416
24.5000   369
24.5500   350
24.6000   286
24.6500   253
24.7000   214
24.7500   229
24.8000   168
24.8500   185
24.9000   185
24.9500   138
25.0000   142
25.0500   156
25.1000   137
25.1500   105
25.2000   124
25.2500   83
25.3000   100
25.3500   86
25.4000   87
25.4500   84
25.5000   72
25.5500   81
25.6000   64
25.6500   69
25.7000   67
25.7500   71
25.8000   68
25.8500   59
25.9000   53
25.9500   76
26.0000   47
26.0500   49
26.1000   42
26.1500   62
26.2000   59
26.2500   49
26.3000   47
26.3500   53
26.4000   41
26.4500   46
26.5000   45
26.5500   46
26.6000   47
26.6500   34
26.7000   46
26.7500   41
26.8000   53
26.8500   38
26.9000   47
26.9500   38
27.0000   47
27.0500   41
27.1000   38
27.1500   43
27.2000   41
27.2500   21
27.3000   40
27.3500   48
27.4000   42
27.4500   36
27.5000   44
27.5500   29
27.6000   32
27.6500   43
27.7000   30
27.7500   31
27.8000   29
27.8500   40
27.9000   30
27.9500   35
28.0000   27
28.0500   29
28.1000   26
28.1500   44
28.2000   31
28.2500   33
28.3000   39
28.3500   24
28.4000   32
28.4500   29
28.5000   26
28.5500   38
28.6000   39
28.6500   37
28.7000   34
28.7500   34
28.8000   27
28.8500   22
28.9000   31
28.9500   21
29.0000   29
29.0500   44
29.1000   25
29.1500   23
29.2000   22
29.2500   22
29.3000   30
29.3500   35
29.4000   30
29.4500   37
29.5000   26
29.5500   38
29.6000   31
29.6500   26
29.7000   30
29.7500   19
29.8000   41
29.8500   38
29.9000   41
29.9500   54
30.0000   51
30.0500   53
30.1000   44
30.1500   78
30.2000   92
30.2500   93
30.3000   146
30.3500   211
30.4000   407
30.4500   693
30.5000   1290
30.5500   2713
30.6000   7176
30.6500   8181
30.7000   5334
30.7500   2531
30.8000   880
30.8500   459
30.9000   338
30.9500   241
31.0000   187
31.0500   164
31.1000   126
31.1500   123
31.2000   132
31.2500   113
31.3000   112
31.3500   139
31.4000   129
31.4500   135
31.5000   141
31.5500   122
31.6000   139
31.6500   133
31.7000   120
31.7500   95
31.8000   106
31.8500   81
31.9000   82
31.9500   71
32.0000   69
32.0500   68
32.1000   49
32.1500   54
32.2000   56
32.2500   50
32.3000   52
32.3500   42
32.4000   58
32.4500   59
32.5000   45
32.5500   54
32.6000   42
32.6500   53
32.7000   65
32.7500   37
32.8000   52
32.8500   52
32.9000   38
32.9500   45
33.0000   61
33.0500   47
33.1000   47
33.1500   63
33.2000   53
33.2500   58
33.3000   69
33.3500   76
33.4000   61
33.4500   70
33.5000   90
33.5500   79
33.6000   87
33.6500   102
33.7000   105
33.7500   122
33.8000   156
33.8500   137
33.9000   186
33.9500   161
34.0000   171
34.0500   179
34.1000   169
34.1500   167
34.2000   149
34.2500   127
34.3000   136
34.3500   110
34.4000   104
34.4500   91
34.5000   101
34.5500   99
34.6000   98
34.6500   100
34.7000   116
34.7500   112
34.8000   99
34.8500   82
34.9000   80
34.9500   93
35.0000   84
35.0500   88
35.1000   110
35.1500   106
35.2000   107
35.2500   151
35.3000   136
35.3500   148
35.4000   131
35.4500   131
35.5000   143
35.5500   158
35.6000   145
35.6500   106
35.7000   109
35.7500   139
35.8000   111
35.8500   91
35.9000   111
35.9500   126
36.0000   95
36.0500   106
36.1000   92
36.1500   95
36.2000   99
36.2500   106
36.3000   78
36.3500   90
36.4000   110
36.4500   106
36.5000   79
36.5500   112
36.6000   112
36.6500   92
36.7000   107
36.7500   98
36.8000   87
36.8500   112
36.9000   112
36.9500   128
37.0000   89
37.0500   110
37.1000   121
37.1500   113
37.2000   136
37.2500   111
37.3000   154
37.3500   147
37.4000   168
37.4500   186
37.5000   202
37.5500   244
37.6000   267
37.6500   280
37.7000   320
37.7500   354
37.8000   423
37.8500   446
37.9000   515
37.9500   602
38.0000   758
38.0500   887
38.1000   1274
38.1500   1728
38.2000   2477
38.2500   3872
38.3000   6236
38.3500   10336
38.4000   16587
38.4500   29053
38.5000   51431
38.5500   62290
38.6000   51237
38.6500   42231
38.7000   22320
38.7500   9060
38.8000   5054
38.8500   3338
38.9000   2207
38.9500   1599
39.0000   1120
39.0500   842
39.1000   667
39.1500   566
39.2000   464
39.2500   430
39.3000   372
39.3500   278
39.4000   263
39.4500   220
39.5000   202
39.5500   151
39.6000   157
39.6500   146
39.7000   134
39.7500   100
39.8000   108
39.8500   73
39.9000   75
39.9500   87
40.0000   70
40.0500   53
40.1000   53
40.1500   58
40.2000   48
40.2500   58
40.3000   52
40.3500   65
40.4000   70
40.4500   63
40.5000   74
40.5500   80
40.6000   63
40.6500   57
40.7000   52
40.7500   69
40.8000   53
40.8500   45
40.9000   37
40.9500   41
41.0000   29
41.0500   44
41.1000   30
41.1500   38
41.2000   26
41.2500   25
41.3000   31
41.3500   27
41.4000   23
41.4500   28
41.5000   18
41.5500   26
41.6000   29
41.6500   19
41.7000   20
41.7500   22
41.8000   17
41.8500   21
41.9000   40
41.9500   42
42.0000   39
42.0500   22
42.1000   22
42.1500   22
42.2000   16
42.2500   20
42.3000   20
42.3500   26
42.4000   22
42.4500   16
42.5000   29
42.5500   16
42.6000   25
42.6500   33
42.7000   17
42.7500   31
42.8000   24
42.8500   20
42.9000   20
42.9500   21
43.0000   28
43.0500   57
43.1000   192
43.1500   249
43.2000   103
43.2500   41
43.3000   39
43.3500   29
43.4000   30
43.4500   32
43.5000   39
43.5500   36
43.6000   36
43.6500   31
43.7000   35
43.7500   24
43.8000   32
43.8500   38
43.9000   26
43.9500   27
44.0000   26
44.0500   43
44.1000   38
44.1500   36
44.2000   34
44.2500   42
44.3000   37
44.3500   59
44.4000   53
44.4500   63
44.5000   62
44.5500   76
44.6000   91
44.6500   109
44.7000   78
44.7500   70
44.8000   80
44.8500   96
44.9000   99
44.9500   127
45.0000   132
45.0500   133
45.1000   136
45.1500   141
45.2000   203
45.2500   173
45.3000   198
45.3500   225
45.4000   253
45.4500   276
45.5000   317
45.5500   326
45.6000   359
45.6500   410
45.7000   465
45.7500   541
45.8000   594
45.8500   779
45.9000   1074
45.9500   954
46.0000   969
46.0500   1163
46.1000   1344
46.1500   1793
46.2000   2268
46.2500   3244
46.3000   4510
46.3500   6618
46.4000   10226
46.4500   15031
46.5000   22386
46.5500   35485
46.6000   54974
46.6500   66055
46.7000   60597
46.7500   51875
46.8000   44631
46.8500   23610
46.9000   11968
46.9500   7706
47.0000   5638
47.0500   4415
47.1000   3659
47.1500   3209
47.2000   3145
47.2500   2990
47.3000   3052
47.3500   3177
47.4000   3233
47.4500   3461
47.5000   3911
47.5500   4291
47.6000   5057
47.6500   6245
47.7000   9877
47.7500   20189
47.8000   27373
47.8500   31643
47.9000   48381
47.9500   76615
48.0000   87008
48.0500   81091
48.1000   81951
48.1500   83100
48.2000   53626
48.2500   30917
48.3000   21011
48.3500   14224
48.4000   8846
48.4500   5849
48.5000   4033
48.5500   3190
48.6000   2698
48.6500   2275
48.7000   2069
48.7500   1770
48.8000   1511
48.8500   1372
48.9000   1169
48.9500   1050
49.0000   910
49.0500   846
49.1000   746
49.1500   616
49.2000   595
49.2500   578
49.3000   511
49.3500   449
49.4000   376
49.4500   349
49.5000   344
49.5500   291
49.6000   251
49.6500   222
49.7000   222
49.7500   171
49.8000   190
49.8500   168
49.9000   164
49.9500   132
50.0000   143
50.0500   127
50.1000   112
50.1500   111
50.2000   113
50.2500   97
50.3000   76
50.3500   78
50.4000   83
50.4500   84
50.5000   58
50.5500   73
50.6000   60
50.6500   68
50.7000   50
50.7500   49
50.8000   55
50.8500   36
50.9000   43
50.9500   33
51.0000   47
51.0500   43
51.1000   33
51.1500   39
51.2000   42
51.2500   44
51.3000   31
51.3500   38
51.4000   41
51.4500   26
51.5000   41
51.5500   27
51.6000   37
51.6500   30
51.7000   23
51.7500   33
51.8000   32
51.8500   40
51.9000   20
51.9500   25
52.0000   19
52.0500   28
52.1000   30
52.1500   21
52.2000   26
52.2500   28
52.3000   28
52.3500   25
52.4000   23
52.4500   29
52.5000   26
52.5500   33
52.6000   33
52.6500   26
52.7000   31
52.7500   29
52.8000   21
52.8500   35
52.9000   36
52.9500   36
53.0000   28
53.0500   39
53.1000   24
53.1500   31
53.2000   37
53.2500   37
53.3000   45
53.3500   42
53.4000   26
53.4500   49
53.5000   57
53.5500   43
53.6000   49
53.6500   72
53.7000   55
53.7500   61
53.8000   68
53.8500   58
53.9000   79
53.9500   69
54.0000   74
54.0500   83
54.1000   102
54.1500   119
54.2000   99
54.2500   119
54.3000   155
54.3500   160
54.4000   205
54.4500   257
54.5000   342
54.5500   456
54.6000   519
54.6500   751
54.7000   1021
54.7500   1509
54.8000   2107
54.8500   3113
54.9000   4739
54.9500   7835
55.0000   12487
55.0500   12225
55.1000   8221
55.1500   7352
55.2000   5869
55.2500   2816
55.3000   1382
55.3500   836
55.4000   520
55.4500   355
55.5000   275
55.5500   204
55.6000   138
55.6500   135
55.7000   107
55.7500   90
55.8000   85
55.8500   80
55.9000   42
55.9500   54
56.0000   40
56.0500   49
56.1000   41
56.1500   37
56.2000   37
56.2500   32
56.3000   32
56.3500   28
56.4000   33
56.4500   24
56.5000   16
56.5500   17
56.6000   22
56.6500   24
56.7000   17
56.7500   19
56.8000   15
56.8500   17
56.9000   14
56.9500   23
57.0000   8
57.0500   15
57.1000   19
57.1500   11
57.2000   19
57.2500   13
57.3000   15
57.3500   12
57.4000   19
57.4500   11
57.5000   13
57.5500   15
57.6000   20
57.6500   21
57.7000   32
57.7500   21
57.8000   36
57.8500   37
57.9000   47
57.9500   44
58.0000   66
58.0500   76
58.1000   83
58.1500   90
58.2000   105
58.2500   93
58.3000   105
58.3500   107
58.4000   69
58.4500   76
58.5000   59
58.5500   54
58.6000   54
58.6500   37
58.7000   30
58.7500   23
58.8000   18
58.8500   22
58.9000   22
58.9500   11
59.0000   17
59.0500   11
59.1000   15
59.1500   9
59.2000   8
59.2500   9
59.3000   10
59.3500   13
59.4000   8
59.4500   7
59.5000   9
59.5500   7
59.6000   10
59.6500   13
59.7000   13
59.7500   8
59.8000   11
59.8500   9
59.9000   13
59.9500   8
60.0000   5
60.0500   12
60.1000   9
60.1500   7
60.2000   17
60.2500   9
60.3000   12
60.3500   5
60.4000   11
60.4500   8
60.5000   11
60.5500   12
60.6000   8
60.6500   8
60.7000   11
60.7500   14
60.8000   15
60.8500   15
60.9000   19
60.9500   12
61.0000   21
61.0500   23
61.1000   16
61.1500   19
61.2000   18
61.2500   13
61.3000   12
61.3500   21
61.4000   14
61.4500   18
61.5000   13
61.5500   18
61.6000   16
61.6500   19
61.7000   17
61.7500   22
61.8000   14
61.8500   14
61.9000   5
61.9500   13
62.0000   21
62.0500   15
62.1000   20
62.1500   13
62.2000   16
62.2500   15
62.3000   17
62.3500   12
62.4000   12
62.4500   10
62.5000   19
62.5500   10
62.6000   14
62.6500   21
62.7000   12
62.7500   19
62.8000   16
62.8500   12
62.9000   20
62.9500   10
63.0000   13
63.0500   15
63.1000   23
63.1500   28
63.2000   23
63.2500   37
63.3000   43
63.3500   53
63.4000   53
63.4500   65
63.5000   92
63.5500   122
63.6000   191
63.6500   279
63.7000   436
63.7500   441
63.8000   298
63.8500   260
63.9000   237
63.9500   175
64.0000   102
64.0500   58
64.1000   37
64.1500   31
64.2000   24
64.2500   19
64.3000   18
64.3500   18
64.4000   13
64.4500   10
64.5000   8
64.5500   9
64.6000   10
64.6500   8
64.7000   4
64.7500   7
64.8000   8
64.8500   10
64.9000   10
64.9500   8
65.0000   8
65.0500   9
65.1000   10
65.1500   7
65.2000   7
65.2500   5
65.3000   6
65.3500   14
65.4000   7
65.4500   5
65.5000   9
65.5500   8
65.6000   9
65.6500   8
65.7000   9
65.7500   10
65.8000   10
65.8500   11
65.9000   8
65.9500   5
66.0000   8
66.0500   11
66.1000   10
66.1500   5
66.2000   13
66.2500   11
66.3000   9
66.3500   7
66.4000   7
66.4500   10
66.5000   10
66.5500   10
66.6000   8
66.6500   11
66.7000   9
66.7500   1
66.8000   12
66.8500   18
66.9000   34
66.9500   23
67.0000   11
67.0500   9
67.1000   5
67.1500   17
67.2000   11
67.2500   6
67.3000   5
67.3500   4
67.4000   6
67.4500   6
67.5000   9
67.5500   5
67.6000   8
67.6500   8
67.7000   8
67.7500   7
67.8000   6
67.8500   3
67.9000   16
67.9500   5
68.0000   12
68.0500   7
68.1000   7
68.1500   10
68.2000   15
68.2500   10
68.3000   14
68.3500   6
68.4000   8
68.4500   7
68.5000   5
68.5500   11
68.6000   10
68.6500   9
68.7000   7
68.7500   9
68.8000   10
68.8500   8
68.9000   9
68.9500   9
69.0000   10
69.0500   11
69.1000   10
69.1500   9
69.2000   7
69.2500   10
69.3000   11
69.3500   10
69.4000   7
69.4500   11
69.5000   6
69.5500   12
69.6000   10
69.6500   7
69.7000   13
69.7500   8
69.8000   14
69.8500   11
69.9000   14
69.9500   13
70.0000   13
