16.2650   2
16.2900   1
16.3150   2
16.3400   4
16.3650   1
16.3900   2
16.4150   1
16.4400   1
16.4650   3
16.4900   3
16.5150   1
16.5400   0
16.5650   2
16.5900   1
16.6150   0
16.6400   1
16.6650   2
16.6900   4
16.7150   0
16.7400   3
16.7650   1
16.7900   3
16.8150   1
16.8400   1
16.8650   1
16.8900   1
16.9150   0
16.9400   5
16.9650   3
16.9900   5
17.0150   3
17.0400   4
17.0650   4
17.0900   2
17.1150   2
17.1400   3
17.1650   3
17.1900   6
17.2150   2
17.2400   6
17.2650   4
17.2900   5
17.3150   3
17.3400   7
17.3650   4
17.3900   5
17.4150   2
17.4400   2
17.4650   6
17.4900   2
17.5150   4
17.5400   7
17.5650   6
17.5900   2
17.6150   5
17.6400   6
17.6650   10
17.6900   11
17.7150   6
17.7400   4
17.7650   8
17.7900   6
17.8150   13
17.8400   9
17.8650   11
17.8900   11
17.9150   12
17.9400   19
17.9650   11
17.9900   17
18.0150   11
18.0400   13
18.0650   15
18.0900   16
18.1150   17
18.1400   35
18.1650   26
18.1900   34
18.2150   34
18.2400   42
18.2650   37
18.2900   50
18.3150   64
18.3400   86
18.3650   93
18.3900   121
18.4150   173
18.4400   218
18.4650   261
18.4900   335
18.5150   460
18.5400   618
18.5650   724
18.5900   913
18.6150   1180
18.6400   1302
18.6650   1537
18.6900   1753
18.7150   2151
18.7400   2501
18.7650   2780
18.7900   3125
18.8150   3411
18.8400   3849
18.8650   4200
18.8900   4899
18.9150   5591
18.9400   6423
18.9650   7008
18.9900   8059
19.0150   8642
19.0400   9459
19.0650   10089
19.0900   9959
19.1150   10576
19.1400   10722
19.1650   11339
19.1900   10789
19.2150   10834
19.2400   10626
19.2650   10227
19.2900   9764
19.3150   8970
19.3400   8374
19.3650   7553
19.3900   6849
19.4150   6317
19.4400   5828
19.4650   5336
19.4900   4960
19.5150   4432
19.5400   4169
19.5650   3985
19.5900   3532
19.6150   3322
19.6400   3102
19.6650   3018
19.6900   2751
19.7150   2535
19.7400   2189
19.7650   1820
19.7900   1561
19.8150   1033
19.8400   812
19.8650   644
19.8900   473
19.9150   324
19.9400   275
19.9650   208
19.9900   178
20.0150   176
20.0400   106
20.0650   112
20.0900   75
20.1150   79
20.1400   70
20.1650   62
20.1900   51
20.2150   44
20.2400   30
20.2650   41
20.2900   27
20.3150   31
20.3400   22
20.3650   21
20.3900   21
20.4150   11
20.4400   18
20.4650   16
20.4900   13
20.5150   11
20.5400   14
20.5650   6
20.5900   7
20.6150   7
20.6400   4
20.6650   10
20.6900   4
20.7150   8
20.7400   5
20.7650   1
20.7900   10
20.8150   13
20.8400   3
20.8650   12
20.8900   3
20.9150   5
20.9400   4
20.9650   8
20.9900   5
21.0150   8
21.0400   3
21.0650   6
21.0900   2
21.1150   3
21.1400   2
21.1650   3
21.1900   5
21.2150   1
21.2400   5
21.2650   2
21.2900   8
21.3150   1
21.3400   1
21.3650   4
21.3900   0
21.4150   4
21.4400   1
21.4650   4
21.4900   4
21.5150   3
21.5400   1
21.5650   4
21.5900   8
21.6150   2
21.6400   3
21.6650   6
21.6900   4
21.7150   3
21.7400   3
21.7650   6
21.7900   2
21.8150   2
21.8400   1
21.8650   3
21.8900   5
21.9150   4
21.9400   0
21.9650   3
21.9900   3
22.0150   2
22.0400   2
22.0650   4
22.0900   4
22.1150   1
22.1400   3
22.1650   2
22.1900   1
22.2150   2
22.2400   3
22.2650   3
