10.0000   92
10.0500   88
10.1000   84
10.1500   70
10.2000   79
10.2500   91
10.3000   75
10.3500   70
10.4000   80
10.4500   66
10.5000   79
10.5500   73
10.6000   69
10.6500   84
10.7000   78
10.7500   70
10.8000   68
10.8500   69
10.9000   74
10.9500   71
11.0000   91
11.0500   68
11.1000   59
11.1500   49
11.2000   67
11.2500   85
11.3000   64
11.3500   85
11.4000   76
11.4500   87
11.5000   89
11.5500   111
11.6000   127
11.6500   138
11.7000   139
11.7500   158
11.8000   159
11.8500   150
11.9000   173
11.9500   171
12.0000   139
12.0500   139
12.1000   130
12.1500   129
12.2000   104
12.2500   87
12.3000   96
12.3500   75
12.4000   73
12.4500   67
12.5000   82
12.5500   70
12.6000   65
12.6500   76
12.7000   70
12.7500   54
12.8000   74
12.8500   53
12.9000   65
12.9500   65
13.0000   48
13.0500   82
13.1000   70
13.1500   74
13.2000   65
13.2500   77
13.3000   63
13.3500   67
13.4000   74
13.4500   78
13.5000   71
13.5500   81
13.6000   76
13.6500   59
13.7000   96
13.7500   73
13.8000   71
13.8500   93
13.9000   97
13.9500   77
14.0000   115
14.0500   95
14.1000   83
14.1500   104
14.2000   104
14.2500   108
14.3000   125
14.3500   118
14.4000   130
14.4500   140
14.5000   159
14.5500   191
14.6000   195
14.6500   220
14.7000   239
14.7500   282
14.8000   346
14.8500   469
14.9000   705
14.9500   1259
15.0000   1829
15.0500   2764
15.1000   5808
15.1500   20095
15.2000   38594
15.2500   22285
15.3000   4785
15.3500   1776
15.4000   1279
15.4500   838
15.5000   517
15.5500   301
15.6000   225
15.6500   180
15.7000   132
15.7500   121
15.8000   95
15.8500   90
15.9000   81
15.9500   80
16.0000   68
16.0500   61
16.1000   59
16.1500   53
16.2000   46
16.2500   49
16.3000   46
16.3500   60
16.4000   55
16.4500   44
16.5000   49
16.5500   45
16.6000   44
16.6500   44
16.7000   43
16.7500   37
16.8000   52
16.8500   55
16.9000   37
16.9500   43
17.0000   46
17.0500   37
17.1000   43
17.1500   33
17.2000   38
17.2500   40
17.3000   25
17.3500   41
17.4000   62
17.4500   45
17.5000   42
17.5500   40
17.6000   38
17.6500   27
17.7000   38
17.7500   38
17.8000   27
17.8500   25
17.9000   35
17.9500   42
18.0000   33
18.0500   45
18.1000   29
18.1500   28
18.2000   29
18.2500   29
18.3000   41
18.3500   35
18.4000   39
18.4500   35
18.5000   32
18.5500   30
18.6000   34
18.6500   32
18.7000   28
18.7500   32
18.8000   28
18.8500   40
18.9000   40
18.9500   35
19.0000   49
19.0500   48
19.1000   36
19.1500   52
19.2000   32
19.2500   50
19.3000   47
19.3500   50
19.4000   31
19.4500   53
19.5000   44
19.5500   44
19.6000   50
19.6500   43
19.7000   33
19.7500   38
19.8000   49
19.8500   43
19.9000   37
19.9500   32
20.0000   40
20.0500   26
20.1000   33
20.1500   30
20.2000   29
20.2500   29
20.3000   31
20.3500   35
20.4000   35
20.4500   37
20.5000   23
20.5500   47
20.6000   43
20.6500   48
20.7000   40
20.7500   34
20.8000   45
20.8500   46
20.9000   45
20.9500   49
21.0000   44
21.0500   46
21.1000   48
21.1500   69
21.2000   207
21.2500   102
21.3000   46
21.3500   59
21.4000   58
21.4500   56
21.5000   67
21.5500   77
21.6000   77
21.6500   84
21.7000   70
21.7500   105
21.8000   93
21.8500   123
21.9000   116
21.9500   145
22.0000   161
22.0500   190
22.1000   187
22.1500   200
22.2000   286
22.2500   300
22.3000   378
22.3500   456
22.4000   583
22.4500   682
22.5000   1064
22.5500   1682
22.6000   2721
22.6500   4364
22.7000   6822
22.7500   13870
22.8000   32912
22.8500   61235
22.9000   54674
22.9500   27377
23.0000   9152
23.0500   5739
23.1000   5079
23.1500   4946
23.2000   7627
23.2500   12638
23.3000   15564
23.3500   20664
23.4000   32848
23.4500   79705
23.5000   91723
23.5500   84900
23.6000   59506
23.6500   22487
23.7000   15969
23.7500   10498
23.8000   6688
23.8500   3948
23.9000   2600
23.9500   1936
24.0000   1556
24.0500   1342
24.1000   1089
24.1500   928
24.2000   709
24.2500   654
24.3000   597
24.3500   493
24.4000   453
24.4500   425
24.5000   379
24.5500   307
24.6000   334
24.6500   287
24.7000   257
24.7500   234
24.8000   192
24.8500   179
24.9000   213
24.9500   184
25.0000   163
25.0500   130
25.1000   138
25.1500   130
25.2000   118
25.2500   116
25.3000   98
25.3500   112
25.4000   104
25.4500   86
25.5000   93
25.5500   74
25.6000   74
25.6500   64
25.7000   78
25.7500   85
25.8000   65
25.8500   50
25.9000   63
25.9500   62
26.0000   55
26.0500   53
26.1000   70
26.1500   56
26.2000   47
26.2500   54
26.3000   60
26.3500   60
26.4000   35
26.4500   56
26.5000   65
26.5500   36
26.6000   45
26.6500   51
26.7000   50
26.7500   48
26.8000   46
26.8500   50
26.9000   63
26.9500   38
27.0000   40
27.0500   43
27.1000   43
27.1500   36
27.2000   41
27.2500   42
27.3000   46
27.3500   47
27.4000   44
27.4500   45
27.5000   48
27.5500   52
27.6000   48
27.6500   41
27.7000   38
27.7500   36
27.8000   42
27.8500   43
27.9000   50
27.9500   36
28.0000   47
28.0500   39
28.1000   50
28.1500   50
28.2000   39
28.2500   42
28.3000   38
28.3500   33
28.4000   39
28.4500   41
28.5000   22
28.5500   40
28.6000   46
28.6500   42
28.7000   41
28.7500   34
28.8000   33
28.8500   41
28.9000   33
28.9500   37
29.0000   39
29.0500   37
29.1000   24
29.1500   34
29.2000   30
29.2500   29
29.3000   33
29.3500   38
29.4000   39
29.4500   31
29.5000   34
29.5500   41
29.6000   32
29.6500   34
29.7000   42
29.7500   25
29.8000   30
29.8500   38
29.9000   53
29.9500   49
30.0000   36
30.0500   57
30.1000   62
30.1500   83
30.2000   112
30.2500   109
30.3000   166
30.3500   290
30.4000   472
30.4500   758
30.5000   1375
30.5500   2967
30.6000   7259
30.6500   7864
30.7000   5344
30.7500   2571
30.8000   916
30.8500   488
30.9000   396
30.9500   269
31.0000   235
31.0500   178
31.1000   162
31.1500   147
31.2000   134
31.2500   125
31.3000   140
31.3500   128
31.4000   168
31.4500   144
31.5000   172
31.5500   204
31.6000   205
31.6500   175
31.7000   125
31.7500   128
31.8000   134
31.8500   96
31.9000   100
31.9500   88
32.0000   87
32.0500   88
32.1000   81
32.1500   65
32.2000   56
32.2500   57
32.3000   59
32.3500   59
32.4000   68
32.4500   56
32.5000   63
32.5500   70
32.6000   49
32.6500   63
32.7000   60
32.7500   71
32.8000   56
32.8500   57
32.9000   64
32.9500   54
33.0000   63
33.0500   60
33.1000   57
33.1500   62
33.2000   61
33.2500   65
33.3000   56
33.3500   80
33.4000   78
33.4500   97
33.5000   100
33.5500   108
33.6000   116
33.6500   110
33.7000   145
33.7500   139
33.8000   162
33.8500   170
33.9000   182
33.9500   208
34.0000   199
34.0500   194
34.1000   196
34.1500   180
34.2000   164
34.2500   145
34.3000   157
34.3500   150
34.4000   138
34.4500   123
34.5000   102
34.5500   86
34.6000   111
34.6500   109
34.7000   110
34.7500   106
34.8000   82
34.8500   112
34.9000   81
34.9500   75
35.0000   99
35.0500   109
35.1000   98
35.1500   129
35.2000   152
35.2500   139
35.3000   145
35.3500   130
35.4000   140
35.4500   169
35.5000   145
35.5500   148
35.6000   121
35.6500   104
35.7000   114
35.7500   102
35.8000   100
35.8500   75
35.9000   111
35.9500   115
36.0000   86
36.0500   100
36.1000   110
36.1500   104
36.2000   96
36.2500   98
36.3000   99
36.3500   85
36.4000   81
36.4500   86
36.5000   109
36.5500   103
36.6000   93
36.6500   103
36.7000   84
36.7500   96
36.8000   103
36.8500   93
36.9000   128
36.9500   108
37.0000   102
37.0500   109
37.1000   102
37.1500   102
37.2000   120
37.2500   133
37.3000   145
37.3500   140
37.4000   182
37.4500   168
37.5000   212
37.5500   231
37.6000   257
37.6500   284
37.7000   307
37.7500   378
37.8000   376
37.8500   479
37.9000   546
37.9500   594
38.0000   764
38.0500   1028
38.1000   1285
38.1500   1835
38.2000   2740
38.2500   4273
38.3000   6827
38.3500   10786
38.4000   17394
38.4500   30132
38.5000   53632
38.5500   65487
38.6000   52432
38.6500   43156
38.7000   22135
38.7500   9325
38.8000   5391
38.8500   3500
38.9000   2323
38.9500   1626
39.0000   1204
39.0500   993
39.1000   762
39.1500   629
39.2000   543
39.2500   496
39.3000   337
39.3500   344
39.4000   307
39.4500   279
39.5000   211
39.5500   205
39.6000   165
39.6500   157
39.7000   139
39.7500   130
39.8000   91
39.8500   82
39.9000   72
39.9500   78
40.0000   86
40.0500   70
40.1000   72
40.1500   58
40.2000   76
40.2500   61
40.3000   55
40.3500   64
40.4000   78
40.4500   65
40.5000   84
40.5500   65
40.6000   72
40.6500   78
40.7000   62
40.7500   82
40.8000   65
40.8500   58
40.9000   40
40.9500   51
41.0000   40
41.0500   44
41.1000   42
41.1500   29
41.2000   35
41.2500   19
41.3000   21
41.3500   29
41.4000   29
41.4500   39
41.5000   18
41.5500   21
41.6000   30
41.6500   24
41.7000   23
41.7500   20
41.8000   29
41.8500   36
41.9000   43
41.9500   32
42.0000   42
42.0500   23
42.1000   28
42.1500   20
42.2000   23
42.2500   27
42.3000   20
42.3500   18
42.4000   18
42.4500   18
42.5000   27
42.5500   23
42.6000   21
42.6500   26
42.7000   26
42.7500   27
42.8000   30
42.8500   25
42.9000   31
42.9500   23
43.0000   33
43.0500   55
43.1000   171
43.1500   241
43.2000   73
43.2500   33
43.3000   40
43.3500   42
43.4000   29
43.4500   27
43.5000   45
43.5500   42
43.6000   41
43.6500   35
43.7000   28
43.7500   39
43.8000   32
43.8500   32
43.9000   37
43.9500   37
44.0000   47
44.0500   37
44.1000   32
44.1500   39
44.2000   52
44.2500   34
44.3000   47
44.3500   60
44.4000   60
44.4500   59
44.5000   59
44.5500   79
44.6000   87
44.6500   82
44.7000   71
44.7500   87
44.8000   95
44.8500   81
44.9000   115
44.9500   106
45.0000   126
45.0500   117
45.1000   133
45.1500   143
45.2000   184
45.2500   158
45.3000   184
45.3500   217
45.4000   247
45.4500   221
45.5000   282
45.5500   294
45.6000   338
45.6500   349
45.7000   405
45.7500   463
45.8000   532
45.8500   628
45.9000   821
45.9500   805
46.0000   900
46.0500   1126
46.1000   1373
46.1500   1730
46.2000   2385
46.2500   3282
46.3000   4617
46.3500   6943
46.4000   10574
46.4500   15779
46.5000   22964
46.5500   36799
46.6000   57746
46.6500   71625
46.7000   63418
46.7500   53934
46.8000   46018
46.8500   23535
46.9000   11735
46.9500   7400
47.0000   5236
47.0500   3956
47.1000   3319
47.1500   2940
47.2000   2614
47.2500   2570
47.3000   2505
47.3500   2635
47.4000   2793
47.4500   3049
47.5000   3299
47.5500   3809
47.6000   4380
47.6500   5820
47.7000   10597
47.7500   20066
47.8000   25983
47.8500   30245
47.9000   47613
47.9500   77561
48.0000   90323
48.0500   81195
48.1000   83508
48.1500   84633
48.2000   53516
48.2500   26730
48.3000   17658
48.3500   11929
48.4000   7464
48.4500   5122
48.5000   3827
48.5500   3164
48.6000   2654
48.6500   2452
48.7000   2162
48.7500   1909
48.8000   1684
48.8500   1420
48.9000   1282
48.9500   1175
49.0000   1017
49.0500   904
49.1000   836
49.1500   760
49.2000   680
49.2500   652
49.3000   554
49.3500   478
49.4000   398
49.4500   359
49.5000   374
49.5500   318
49.6000   259
49.6500   296
49.7000   232
49.7500   218
49.8000   165
49.8500   170
49.9000   176
49.9500   150
50.0000   157
50.0500   135
50.1000   124
50.1500   117
50.2000   114
50.2500   108
50.3000   83
50.3500   88
50.4000   78
50.4500   66
50.5000   76
50.5500   63
50.6000   50
50.6500   71
50.7000   61
50.7500   57
50.8000   53
50.8500   47
50.9000   52
50.9500   50
51.0000   58
51.0500   36
51.1000   38
51.1500   37
51.2000   47
51.2500   39
51.3000   44
51.3500   42
51.4000   45
51.4500   36
51.5000   52
51.5500   35
51.6000   28
51.6500   31
51.7000   38
51.7500   28
51.8000   34
51.8500   34
51.9000   40
51.9500   35
52.0000   34
52.0500   28
52.1000   46
52.1500   28
52.2000   29
52.2500   30
52.3000   29
52.3500   34
52.4000   34
52.4500   38
52.5000   31
52.5500   34
52.6000   33
52.6500   36
52.7000   25
52.7500   31
52.8000   30
52.8500   23
52.9000   33
52.9500   22
53.0000   34
53.0500   32
53.1000   39
53.1500   26
53.2000   29
53.2500   27
53.3000   35
53.3500   43
53.4000   55
53.4500   35
53.5000   50
53.5500   54
53.6000   66
53.6500   52
53.7000   60
53.7500   55
53.8000   65
53.8500   70
53.9000   84
53.9500   73
54.0000   84
54.0500   88
54.1000   99
54.1500   105
54.2000   125
54.2500   106
54.3000   145
54.3500   170
54.4000   204
54.4500   289
54.5000   338
54.5500   411
54.6000   593
54.6500   778
54.7000   1081
54.7500   1729
54.8000   2303
54.8500   3249
54.9000   5043
54.9500   8280
55.0000   13269
55.0500   12731
55.1000   8447
55.1500   7906
55.2000   6263
55.2500   3140
55.3000   1409
55.3500   875
55.4000   563
55.4500   413
55.5000   299
55.5500   230
55.6000   160
55.6500   152
55.7000   108
55.7500   89
55.8000   88
55.8500   76
55.9000   59
55.9500   60
56.0000   67
56.0500   45
56.1000   42
56.1500   35
56.2000   30
56.2500   40
56.3000   37
56.3500   36
56.4000   27
56.4500   25
56.5000   30
56.5500   24
56.6000   22
56.6500   28
56.7000   20
56.7500   17
56.8000   19
56.8500   21
56.9000   21
56.9500   17
57.0000   12
57.0500   9
57.1000   23
57.1500   22
57.2000   13
57.2500   13
57.3000   16
57.3500   14
57.4000   13
57.4500   18
57.5000   16
57.5500   10
57.6000   29
57.6500   21
57.7000   19
57.7500   33
57.8000   22
57.8500   42
57.9000   44
57.9500   66
58.0000   66
58.0500   73
58.1000   85
58.1500   127
58.2000   107
58.2500   94
58.3000   121
58.3500   96
58.4000   85
58.4500   68
58.5000   70
58.5500   56
58.6000   42
58.6500   38
58.7000   36
58.7500   29
58.8000   24
58.8500   20
58.9000   7
58.9500   20
59.0000   15
59.0500   7
59.1000   11
59.1500   14
59.2000   7
59.2500   14
59.3000   5
59.3500   8
59.4000   9
59.4500   8
59.5000   17
59.5500   10
59.6000   12
59.6500   7
59.7000   7
59.7500   8
59.8000   6
59.8500   17
59.9000   11
59.9500   6
60.0000   14
60.0500   19
60.1000   7
60.1500   10
60.2000   8
60.2500   9
60.3000   9
60.3500   8
60.4000   15
60.4500   7
60.5000   12
60.5500   8
60.6000   19
60.6500   7
60.7000   10
60.7500   16
60.8000   15
60.8500   10
60.9000   16
60.9500   17
61.0000   16
61.0500   14
61.1000   10
61.1500   11
61.2000   13
61.2500   11
61.3000   15
61.3500   9
61.4000   13
61.4500   15
61.5000   16
61.5500   16
61.6000   18
61.6500   13
61.7000   19
61.7500   19
61.8000   15
61.8500   16
61.9000   19
61.9500   10
62.0000   13
62.0500   21
62.1000   10
62.1500   12
62.2000   8
62.2500   17
62.3000   10
62.3500   13
62.4000   20
62.4500   8
62.5000   8
62.5500   17
62.6000   17
62.6500   12
62.7000   15
62.7500   13
62.8000   11
62.8500   18
62.9000   15
62.9500   18
63.0000   12
63.0500   15
63.1000   17
63.1500   28
63.2000   29
63.2500   39
63.3000   34
63.3500   41
63.4000   55
63.4500   91
63.5000   101
63.5500   147
63.6000   208
63.6500   339
63.7000   457
63.7500   487
63.8000   305
63.8500   232
63.9000   316
63.9500   232
64.0000   91
64.0500   63
64.1000   46
64.1500   33
64.2000   19
64.2500   15
64.3000   26
64.3500   12
64.4000   13
64.4500   14
64.5000   15
64.5500   15
64.6000   12
64.6500   6
64.7000   12
64.7500   11
64.8000   10
64.8500   12
64.9000   13
64.9500   12
65.0000   12
65.0500   10
65.1000   12
65.1500   10
65.2000   10
65.2500   15
65.3000   12
65.3500   11
65.4000   10
65.4500   11
65.5000   17
65.5500   9
65.6000   9
65.6500   5
65.7000   9
65.7500   9
65.8000   9
65.8500   11
65.9000   10
65.9500   10
66.0000   5
66.0500   11
66.1000   10
66.1500   12
66.2000   12
66.2500   7
66.3000   4
66.3500   6
66.4000   7
66.4500   13
66.5000   9
66.5500   7
66.6000   8
66.6500   7
66.7000   13
66.7500   7
66.8000   9
66.8500   22
66.9000   30
66.9500   15
67.0000   18
67.0500   14
67.1000   6
67.1500   10
67.2000   3
67.2500   8
67.3000   8
67.3500   7
67.4000   4
67.4500   6
67.5000   3
67.5500   7
67.6000   9
67.6500   11
67.7000   8
67.7500   10
67.8000   17
67.8500   11
67.9000   12
67.9500   13
68.0000   15
68.0500   12
68.1000   14
68.1500   19
68.2000   7
68.2500   16
68.3000   8
68.3500   11
68.4000   5
68.4500   8
68.5000   11
68.5500   13
68.6000   9
68.6500   14
68.7000   5
68.7500   14
68.8000   6
68.8500   5
68.9000   9
68.9500   12
69.0000   5
69.0500   14
69.1000   9
69.1500   12
69.2000   7
69.2500   7
69.3000   8
69.3500   12
69.4000   6
69.4500   10
69.5000   10
69.5500   9
69.6000   7
69.6500   11
69.7000   9
69.7500   6
69.8000   8
69.8500   13
69.9000   11
69.9500   13
70.0000   10
