10.0000   66
10.0500   85
10.1000   61
10.1500   91
10.2000   79
10.2500   65
10.3000   71
10.3500   79
10.4000   67
10.4500   68
10.5000   77
10.5500   60
10.6000   64
10.6500   57
10.7000   88
10.7500   78
10.8000   81
10.8500   69
10.9000   73
10.9500   73
11.0000   66
11.0500   68
11.1000   72
11.1500   71
11.2000   61
11.2500   76
11.3000   76
11.3500   77
11.4000   78
11.4500   81
11.5000   68
11.5500   76
11.6000   76
11.6500   93
11.7000   110
11.7500   108
11.8000   84
11.8500   118
11.9000   95
11.9500   112
12.0000   118
12.0500   98
12.1000   94
12.1500   94
12.2000   95
12.2500   74
12.3000   63
12.3500   69
12.4000   84
12.4500   81
12.5000   76
12.5500   61
12.6000   57
12.6500   80
12.7000   55
12.7500   62
12.8000   60
12.8500   77
12.9000   65
12.9500   64
13.0000   57
13.0500   88
13.1000   76
13.1500   64
13.2000   61
13.2500   72
13.3000   68
13.3500   78
13.4000   54
13.4500   82
13.5000   67
13.5500   66
13.6000   78
13.6500   77
13.7000   85
13.7500   82
13.8000   66
13.8500   68
13.9000   72
13.9500   60
14.0000   78
14.0500   81
14.1000   79
14.1500   84
14.2000   91
14.2500   122
14.3000   112
14.3500   106
14.4000   108
14.4500   124
14.5000   123
14.5500   151
14.6000   141
14.6500   175
14.7000   212
14.7500   285
14.8000   331
14.8500   409
14.9000   599
14.9500   1029
15.0000   1613
15.0500   2488
15.1000   4668
15.1500   14796
15.2000   52278
15.2500   52505
15.3000   14944
15.3500   3349
15.4000   2048
15.4500   1349
15.5000   825
15.5500   493
15.6000   323
15.6500   210
15.7000   208
15.7500   145
15.8000   112
15.8500   106
15.9000   110
15.9500   95
16.0000   88
16.0500   68
16.1000   70
16.1500   43
16.2000   51
16.2500   56
16.3000   47
16.3500   59
16.4000   59
16.4500   42
16.5000   52
16.5500   47
16.6000   48
16.6500   48
16.7000   51
16.7500   38
16.8000   50
16.8500   45
16.9000   62
16.9500   32
17.0000   44
17.0500   43
17.1000   43
17.1500   49
17.2000   43
17.2500   43
17.3000   44
17.3500   52
17.4000   45
17.4500   23
17.5000   37
17.5500   37
17.6000   33
17.6500   32
17.7000   37
17.7500   32
17.8000   42
17.8500   49
17.9000   40
17.9500   32
18.0000   28
18.0500   37
18.1000   43
18.1500   38
18.2000   45
18.2500   54
18.3000   30
18.3500   27
18.4000   36
18.4500   42
18.5000   28
18.5500   31
18.6000   31
18.6500   28
18.7000   36
18.7500   44
18.8000   35
18.8500   37
18.9000   37
18.9500   43
19.0000   26
19.0500   29
19.1000   48
19.1500   37
19.2000   28
19.2500   41
19.3000   41
19.3500   41
19.4000   30
19.4500   35
19.5000   34
19.5500   37
19.6000   36
19.6500   37
19.7000   30
19.7500   22
19.8000   30
19.8500   32
19.9000   35
19.9500   36
20.0000   29
20.0500   43
20.1000   44
20.1500   30
20.2000   42
20.2500   26
20.3000   31
20.3500   41
20.4000   32
20.4500   40
20.5000   33
20.5500   43
20.6000   52
20.6500   63
20.7000   45
20.7500   49
20.8000   43
20.8500   42
20.9000   38
20.9500   44
21.0000   39
21.0500   46
21.1000   50
21.1500   55
21.2000   206
21.2500   223
21.3000   67
21.3500   62
21.4000   77
21.4500   62
21.5000   77
21.5500   72
21.6000   84
21.6500   84
21.7000   96
21.7500   95
21.8000   105
21.8500   112
21.9000   111
21.9500   136
22.0000   187
22.0500   183
22.1000   215
22.1500   238
22.2000   312
22.2500   328
22.3000   420
22.3500   516
22.4000   663
22.4500   878
22.5000   1149
22.5500   1845
22.6000   2688
22.6500   4420
22.7000   7289
22.7500   14049
22.8000   33023
22.8500   83978
22.9000   94927
22.9500   61033
23.0000   21174
23.0500   9942
23.1000   7912
23.1500   7290
23.2000   8057
23.2500   14024
23.3000   21745
23.3500   28953
23.4000   46204
23.4500   100006
23.5000   95763
23.5500   95607
23.6000   89287
23.6500   49430
23.7000   32734
23.7500   24381
23.8000   16430
23.8500   9395
23.9000   5123
23.9500   2992
24.0000   2200
24.0500   1743
24.1000   1366
24.1500   1103
24.2000   850
24.2500   682
24.3000   661
24.3500   550
24.4000   444
24.4500   366
24.5000   349
24.5500   292
24.6000   307
24.6500   254
24.7000   251
24.7500   217
24.8000   199
24.8500   188
24.9000   196
24.9500   173
25.0000   178
25.0500   126
25.1000   128
25.1500   154
25.2000   140
25.2500   109
25.3000   128
25.3500   107
25.4000   104
25.4500   101
25.5000   119
25.5500   88
25.6000   101
25.6500   83
25.7000   79
25.7500   74
25.8000   76
25.8500   80
25.9000   66
25.9500   64
26.0000   61
26.0500   73
26.1000   62
26.1500   69
26.2000   57
26.2500   74
26.3000   57
26.3500   58
26.4000   75
26.4500   49
26.5000   59
26.5500   53
26.6000   42
26.6500   54
26.7000   56
26.7500   38
26.8000   56
26.8500   55
26.9000   49
26.9500   32
27.0000   36
27.0500   49
27.1000   40
27.1500   61
27.2000   45
27.2500   36
27.3000   48
27.3500   41
27.4000   39
27.4500   39
27.5000   31
27.5500   45
27.6000   64
27.6500   31
27.7000   38
27.7500   45
27.8000   39
27.8500   49
27.9000   40
27.9500   48
28.0000   42
28.0500   44
28.1000   36
28.1500   39
28.2000   27
28.2500   34
28.3000   49
28.3500   39
28.4000   39
28.4500   40
28.5000   44
28.5500   29
28.6000   35
28.6500   43
28.7000   31
28.7500   39
28.8000   33
28.8500   44
28.9000   41
28.9500   33
29.0000   44
29.0500   35
29.1000   33
29.1500   43
29.2000   42
29.2500   40
29.3000   42
29.3500   47
29.4000   41
29.4500   23
29.5000   44
29.5500   31
29.6000   43
29.6500   33
29.7000   54
29.7500   50
29.8000   47
29.8500   50
29.9000   46
29.9500   59
30.0000   69
30.0500   71
30.1000   63
30.1500   115
30.2000   101
30.2500   124
30.3000   176
30.3500   306
30.4000   483
30.4500   782
30.5000   1375
30.5500   2953
30.6000   7875
30.6500   12265
30.7000   9083
30.7500   5027
30.8000   1693
30.8500   766
30.9000   537
30.9500   393
31.0000   288
31.0500   208
31.1000   165
31.1500   162
31.2000   136
31.2500   134
31.3000   162
31.3500   120
31.4000   142
31.4500   128
31.5000   167
31.5500   149
31.6000   178
31.6500   164
31.7000   155
31.7500   116
31.8000   95
31.8500   96
31.9000   109
31.9500   100
32.0000   89
32.0500   95
32.1000   76
32.1500   71
32.2000   96
32.2500   76
32.3000   72
32.3500   86
32.4000   59
32.4500   64
32.5000   68
32.5500   71
32.6000   55
32.6500   73
32.7000   75
32.7500   58
32.8000   76
32.8500   81
32.9000   76
32.9500   61
33.0000   71
33.0500   68
33.1000   89
33.1500   69
33.2000   85
33.2500   64
33.3000   82
33.3500   89
33.4000   95
33.4500   112
33.5000   121
33.5500   131
33.6000   132
33.6500   169
33.7000   171
33.7500   167
33.8000   221
33.8500   216
33.9000   307
33.9500   329
34.0000   336
34.0500   349
34.1000   339
34.1500   312
34.2000   315
34.2500   275
34.3000   232
34.3500   197
34.4000   185
34.4500   174
34.5000   153
34.5500   155
34.6000   127
34.6500   138
34.7000   126
34.7500   101
34.8000   104
34.8500   103
34.9000   118
34.9500   110
35.0000   98
35.0500   87
35.1000   117
35.1500   113
35.2000   102
35.2500   130
35.3000   147
35.3500   149
35.4000   141
35.4500   144
35.5000   163
35.5500   154
35.6000   133
35.6500   129
35.7000   127
35.7500   104
35.8000   94
35.8500   90
35.9000   79
35.9500   87
36.0000   88
36.0500   82
36.1000   72
36.1500   67
36.2000   77
36.2500   102
36.3000   78
36.3500   94
36.4000   82
36.4500   85
36.5000   97
36.5500   107
36.6000   95
36.6500   83
36.7000   121
36.7500   102
36.8000   87
36.8500   121
36.9000   141
36.9500   130
37.0000   117
37.0500   131
37.1000   122
37.1500   139
37.2000   138
37.2500   158
37.3000   157
37.3500   174
37.4000   221
37.4500   238
37.5000   239
37.5500   261
37.6000   300
37.6500   364
37.7000   400
37.7500   436
37.8000   477
37.8500   591
37.9000   659
37.9500   846
38.0000   978
38.0500   1294
38.1000   1609
38.1500   2154
38.2000   3079
38.2500   4771
38.3000   8079
38.3500   12830
38.4000   21006
38.4500   36317
38.5000   67114
38.5500   97650
38.6000   86617
38.6500   69527
38.7000   44151
38.7500   17329
38.8000   9010
38.8500   5594
38.9000   3752
38.9500   2455
39.0000   1743
39.0500   1298
39.1000   1057
39.1500   866
39.2000   706
39.2500   606
39.3000   509
39.3500   448
39.4000   374
39.4500   310
39.5000   317
39.5500   241
39.6000   207
39.6500   193
39.7000   165
39.7500   178
39.8000   134
39.8500   130
39.9000   106
39.9500   99
40.0000   83
40.0500   92
40.1000   74
40.1500   76
40.2000   101
40.2500   72
40.3000   79
40.3500   78
40.4000   79
40.4500   97
40.5000   110
40.5500   89
40.6000   82
40.6500   92
40.7000   89
40.7500   81
40.8000   72
40.8500   78
40.9000   73
40.9500   75
41.0000   63
41.0500   49
41.1000   50
41.1500   52
41.2000   33
41.2500   39
41.3000   41
41.3500   36
41.4000   32
41.4500   32
41.5000   31
41.5500   37
41.6000   19
41.6500   34
41.7000   27
41.7500   33
41.8000   24
41.8500   42
41.9000   36
41.9500   42
42.0000   45
42.0500   35
42.1000   30
42.1500   25
42.2000   41
42.2500   23
42.3000   25
42.3500   30
42.4000   23
42.4500   26
42.5000   28
42.5500   32
42.6000   25
42.6500   33
42.7000   32
42.7500   26
42.8000   34
42.8500   40
42.9000   49
42.9500   38
43.0000   31
43.0500   45
43.1000   101
43.1500   283
43.2000   169
43.2500   57
43.3000   32
43.3500   32
43.4000   42
43.4500   30
43.5000   44
43.5500   42
43.6000   39
43.6500   32
43.7000   26
43.7500   46
43.8000   52
43.8500   46
43.9000   38
43.9500   38
44.0000   45
44.0500   48
44.1000   53
44.1500   46
44.2000   42
44.2500   53
44.3000   63
44.3500   66
44.4000   67
44.4500   75
44.5000   79
44.5500   93
44.6000   99
44.6500   99
44.7000   109
44.7500   127
44.8000   110
44.8500   114
44.9000   116
44.9500   164
45.0000   172
45.0500   139
45.1000   196
45.1500   188
45.2000   205
45.2500   241
45.3000   241
45.3500   270
45.4000   314
45.4500   333
45.5000   369
45.5500   421
45.6000   465
45.6500   471
45.7000   578
45.7500   616
45.8000   708
45.8500   867
45.9000   1036
45.9500   1278
46.0000   1211
46.0500   1507
46.1000   1808
46.1500   2281
46.2000   2986
46.2500   4012
46.3000   5863
46.3500   8558
46.4000   13188
46.4500   19906
46.5000   29682
46.5500   47147
46.6000   76633
46.6500   103796
46.7000   101432
46.7500   82399
46.8000   74454
46.8500   44003
46.9000   21174
46.9500   12383
47.0000   8841
47.0500   6455
47.1000   5510
47.1500   4751
47.2000   4335
47.2500   3951
47.3000   3993
47.3500   4093
47.4000   4276
47.4500   4550
47.5000   5014
47.5500   5559
47.6000   6442
47.6500   7920
47.7000   10819
47.7500   23637
47.8000   37718
47.8500   44108
47.9000   61198
47.9500   103654
48.0000   94302
48.0500   96210
48.1000   87276
48.1500   95182
48.2000   96988
48.2500   53917
48.3000   34782
48.3500   24122
48.4000   15259
48.4500   9926
48.5000   6616
48.5500   4807
48.6000   4001
48.6500   3329
48.7000   3011
48.7500   2672
48.8000   2270
48.8500   1995
48.9000   1722
48.9500   1534
49.0000   1335
49.0500   1138
49.1000   1013
49.1500   967
49.2000   852
49.2500   758
49.3000   661
49.3500   589
49.4000   492
49.4500   474
49.5000   429
49.5500   366
49.6000   370
49.6500   307
49.7000   293
49.7500   255
49.8000   218
49.8500   210
49.9000   157
49.9500   167
50.0000   171
50.0500   128
50.1000   156
50.1500   115
50.2000   120
50.2500   133
50.3000   87
50.3500   99
50.4000   97
50.4500   89
50.5000   94
50.5500   80
50.6000   62
50.6500   91
50.7000   70
50.7500   94
50.8000   68
50.8500   45
50.9000   54
50.9500   64
51.0000   43
51.0500   49
51.1000   49
51.1500   48
51.2000   58
51.2500   55
51.3000   42
51.3500   42
51.4000   62
51.4500   48
51.5000   43
51.5500   44
51.6000   50
51.6500   38
51.7000   31
51.7500   41
51.8000   35
51.8500   46
51.9000   45
51.9500   37
52.0000   35
52.0500   38
52.1000   42
52.1500   32
52.2000   45
52.2500   35
52.3000   36
52.3500   34
52.4000   33
52.4500   39
52.5000   44
52.5500   42
52.6000   40
52.6500   27
52.7000   35
52.7500   45
52.8000   38
52.8500   49
52.9000   40
52.9500   38
53.0000   49
53.0500   37
53.1000   37
53.1500   29
53.2000   57
53.2500   51
53.3000   51
53.3500   56
53.4000   55
53.4500   79
53.5000   60
53.5500   63
53.6000   70
53.6500   79
53.7000   71
53.7500   79
53.8000   77
53.8500   83
53.9000   86
53.9500   105
54.0000   92
54.0500   93
54.1000   104
54.1500   138
54.2000   144
54.2500   148
54.3000   189
54.3500   218
54.4000   262
54.4500   302
54.5000   382
54.5500   551
54.6000   706
54.6500   942
54.7000   1312
54.7500   1892
54.8000   2774
54.8500   4147
54.9000   6255
54.9500   10219
55.0000   16826
55.0500   19571
55.1000   13711
55.1500   11049
55.2000   9926
55.2500   5280
55.3000   2441
55.3500   1391
55.4000   871
55.4500   555
55.5000   442
55.5500   319
55.6000   249
55.6500   199
55.7000   192
55.7500   158
55.8000   148
55.8500   111
55.9000   89
55.9500   86
56.0000   69
56.0500   75
56.1000   67
56.1500   45
56.2000   62
56.2500   62
56.3000   49
56.3500   47
56.4000   48
56.4500   41
56.5000   32
56.5500   44
56.6000   30
56.6500   27
56.7000   40
56.7500   30
56.8000   39
56.8500   15
56.9000   23
56.9500   23
57.0000   14
57.0500   31
57.1000   25
57.1500   21
57.2000   15
57.2500   15
57.3000   20
57.3500   20
57.4000   16
57.4500   24
57.5000   25
57.5500   18
57.6000   21
57.6500   23
57.7000   35
57.7500   46
57.8000   50
57.8500   66
57.9000   56
57.9500   85
58.0000   84
58.0500   96
58.1000   130
58.1500   159
58.2000   184
58.2500   187
58.3000   159
58.3500   157
58.4000   127
58.4500   143
58.5000   102
58.5500   103
58.6000   62
58.6500   46
58.7000   38
58.7500   39
58.8000   41
58.8500   37
58.9000   28
58.9500   21
59.0000   20
59.0500   8
59.1000   11
59.1500   16
59.2000   22
59.2500   16
59.3000   12
59.3500   14
59.4000   16
59.4500   9
59.5000   9
59.5500   12
59.6000   6
59.6500   5
59.7000   7
59.7500   12
59.8000   15
59.8500   5
59.9000   7
59.9500   10
60.0000   8
60.0500   12
60.1000   12
60.1500   12
60.2000   10
60.2500   16
60.3000   8
60.3500   11
60.4000   12
60.4500   17
60.5000   13
60.5500   13
60.6000   13
60.6500   17
60.7000   12
60.7500   12
60.8000   10
60.8500   10
60.9000   11
60.9500   16
61.0000   16
61.0500   17
61.1000   14
61.1500   22
61.2000   17
61.2500   14
61.3000   15
61.3500   12
61.4000   18
61.4500   11
61.5000   15
61.5500   19
61.6000   12
61.6500   11
61.7000   10
61.7500   16
61.8000   14
61.8500   7
61.9000   20
61.9500   14
62.0000   9
62.0500   8
62.1000   21
62.1500   8
62.2000   8
62.2500   10
62.3000   21
62.3500   7
62.4000   7
62.4500   12
62.5000   17
62.5500   12
62.6000   13
62.6500   19
62.7000   11
62.7500   19
62.8000   12
62.8500   18
62.9000   16
62.9500   17
63.0000   12
63.0500   25
63.1000   19
63.1500   29
63.2000   31
63.2500   40
63.3000   35
63.3500   54
63.4000   66
63.4500   94
63.5000   124
63.5500   180
63.6000   268
63.6500   401
63.7000   629
63.7500   657
63.8000   415
63.8500   367
63.9000   372
63.9500   277
64.0000   153
64.0500   78
64.1000   53
64.1500   42
64.2000   33
64.2500   28
64.3000   25
64.3500   15
64.4000   18
64.4500   11
64.5000   14
64.5500   13
64.6000   19
64.6500   11
64.7000   15
64.7500   14
64.8000   15
64.8500   21
64.9000   11
64.9500   15
65.0000   8
65.0500   13
65.1000   12
65.1500   9
65.2000   10
65.2500   20
65.3000   6
65.3500   9
65.4000   6
65.4500   11
65.5000   9
65.5500   9
65.6000   12
65.6500   14
65.7000   10
65.7500   16
65.8000   19
65.8500   11
65.9000   15
65.9500   20
66.0000   15
66.0500   6
66.1000   12
66.1500   17
66.2000   16
66.2500   20
66.3000   13
66.3500   12
66.4000   11
66.4500   7
66.5000   10
66.5500   14
66.6000   12
66.6500   14
66.7000   3
66.7500   19
66.8000   9
66.8500   24
66.9000   44
66.9500   30
67.0000   19
67.0500   8
67.1000   12
67.1500   6
67.2000   12
67.2500   15
67.3000   9
67.3500   11
67.4000   7
67.4500   7
67.5000   10
67.5500   9
67.6000   15
67.6500   10
67.7000   14
67.7500   11
67.8000   6
67.8500   11
67.9000   15
67.9500   13
68.0000   10
68.0500   10
68.1000   19
68.1500   25
68.2000   27
68.2500   19
68.3000   23
68.3500   14
68.4000   12
68.4500   13
68.5000   15
68.5500   16
68.6000   14
68.6500   6
68.7000   7
68.7500   15
68.8000   8
68.8500   15
68.9000   13
68.9500   13
69.0000   8
69.0500   6
69.1000   9
69.1500   14
69.2000   5
69.2500   13
69.3000   12
69.3500   12
69.4000   17
69.4500   7
69.5000   15
69.5500   10
69.6000   9
69.6500   17
69.7000   14
69.7500   13
69.8000   14
69.8500   13
69.9000   16
69.9500   18
70.0000   7
