16.2650   1
16.2900   0
16.3150   1
16.3400   3
16.3650   2
16.3900   2
16.4150   0
16.4400   5
16.4650   1
16.4900   2
16.5150   0
16.5400   1
16.5650   0
16.5900   1
16.6150   1
16.6400   2
16.6650   3
16.6900   1
16.7150   2
16.7400   1
16.7650   4
16.7900   2
16.8150   1
16.8400   1
16.8650   2
16.8900   1
16.9150   2
16.9400   0
16.9650   2
16.9900   5
17.0150   1
17.0400   5
17.0650   2
17.0900   0
17.1150   4
17.1400   2
17.1650   3
17.1900   1
17.2150   3
17.2400   1
17.2650   2
17.2900   4
17.3150   3
17.3400   1
17.3650   5
17.3900   0
17.4150   2
17.4400   5
17.4650   3
17.4900   3
17.5150   3
17.5400   1
17.5650   5
17.5900   7
17.6150   4
17.6400   4
17.6650   8
17.6900   3
17.7150   3
17.7400   6
17.7650   10
17.7900   7
17.8150   3
17.8400   6
17.8650   5
17.8900   4
17.9150   4
17.9400   5
17.9650   8
17.9900   12
18.0150   8
18.0400   17
18.0650   11
18.0900   18
18.1150   15
18.1400   15
18.1650   33
18.1900   16
18.2150   31
18.2400   29
18.2650   31
18.2900   31
18.3150   56
18.3400   57
18.3650   61
18.3900   87
18.4150   90
18.4400   111
18.4650   154
18.4900   182
18.5150   252
18.5400   340
18.5650   459
18.5900   567
18.6150   686
18.6400   769
18.6650   968
18.6900   1091
18.7150   1367
18.7400   1595
18.7650   1911
18.7900   2132
18.8150   2346
18.8400   2522
18.8650   2842
18.8900   3031
18.9150   3249
18.9400   3639
18.9650   4131
18.9900   4670
19.0150   5064
19.0400   5577
19.0650   6286
19.0900   6355
19.1150   7025
19.1400   7363
19.1650   7515
19.1900   7654
19.2150   7842
19.2400   7917
19.2650   7703
19.2900   7396
19.3150   7011
19.3400   6778
19.3650   5922
19.3900   5578
19.4150   4953
19.4400   4522
19.4650   3755
19.4900   3357
19.5150   2952
19.5400   2530
19.5650   2263
19.5900   2029
19.6150   1741
19.6400   1501
19.6650   1380
19.6900   1240
19.7150   1142
19.7400   1108
19.7650   972
19.7900   776
19.8150   583
19.8400   455
19.8650   316
19.8900   258
19.9150   175
19.9400   155
19.9650   117
19.9900   83
20.0150   86
20.0400   59
20.0650   59
20.0900   46
20.1150   45
20.1400   41
20.1650   36
20.1900   23
20.2150   36
20.2400   19
20.2650   28
20.2900   22
20.3150   21
20.3400   10
20.3650   13
20.3900   11
20.4150   8
20.4400   9
20.4650   11
20.4900   5
20.5150   10
20.5400   10
20.5650   6
20.5900   6
20.6150   4
20.6400   5
20.6650   5
20.6900   11
20.7150   6
20.7400   4
20.7650   4
20.7900   3
20.8150   5
20.8400   1
20.8650   2
20.8900   1
20.9150   4
20.9400   4
20.9650   2
20.9900   1
21.0150   6
21.0400   5
21.0650   1
21.0900   6
21.1150   3
21.1400   2
21.1650   7
21.1900   5
21.2150   3
21.2400   3
21.2650   2
21.2900   2
21.3150   3
21.3400   2
21.3650   3
21.3900   2
21.4150   3
21.4400   3
21.4650   2
21.4900   2
21.5150   4
21.5400   2
21.5650   2
21.5900   0
21.6150   0
21.6400   3
21.6650   1
21.6900   1
21.7150   2
21.7400   3
21.7650   3
21.7900   5
21.8150   1
21.8400   4
21.8650   4
21.8900   2
21.9150   0
21.9400   1
21.9650   1
21.9900   1
22.0150   2
22.0400   1
22.0650   2
22.0900   3
22.1150   3
22.1400   2
22.1650   2
22.1900   1
22.2150   0
22.2400   1
22.2650   1
