16.2650   0
16.2900   1
16.3150   2
16.3400   0
16.3650   3
16.3900   2
16.4150   6
16.4400   2
16.4650   1
16.4900   2
16.5150   2
16.5400   2
16.5650   4
16.5900   1
16.6150   0
16.6400   1
16.6650   2
16.6900   3
16.7150   1
16.7400   1
16.7650   1
16.7900   3
16.8150   3
16.8400   1
16.8650   2
16.8900   2
16.9150   2
16.9400   0
16.9650   0
16.9900   0
17.0150   3
17.0400   4
17.0650   0
17.0900   2
17.1150   1
17.1400   3
17.1650   1
17.1900   3
17.2150   0
17.2400   4
17.2650   6
17.2900   1
17.3150   1
17.3400   0
17.3650   1
17.3900   5
17.4150   1
17.4400   1
17.4650   2
17.4900   8
17.5150   4
17.5400   1
17.5650   2
17.5900   4
17.6150   4
17.6400   4
17.6650   3
17.6900   3
17.7150   4
17.7400   6
17.7650   16
17.7900   9
17.8150   7
17.8400   9
17.8650   7
17.8900   6
17.9150   12
17.9400   7
17.9650   8
17.9900   7
18.0150   14
18.0400   10
18.0650   15
18.0900   20
18.1150   14
18.1400   20
18.1650   20
18.1900   26
18.2150   19
18.2400   37
18.2650   41
18.2900   39
18.3150   48
18.3400   51
18.3650   68
18.3900   76
18.4150   87
18.4400   130
18.4650   145
18.4900   194
18.5150   240
18.5400   346
18.5650   486
18.5900   633
18.6150   901
18.6400   1255
18.6650   1563
18.6900   1978
18.7150   2282
18.7400   2521
18.7650   3105
18.7900   3308
18.8150   3504
18.8400   3779
18.8650   4268
18.8900   4239
18.9150   4517
18.9400   4515
18.9650   4656
18.9900   4639
19.0150   4635
19.0400   4454
19.0650   4476
19.0900   4608
19.1150   4598
19.1400   4627
19.1650   4458
19.1900   4645
19.2150   4798
19.2400   4689
19.2650   4773
19.2900   4516
19.3150   4643
19.3400   4657
19.3650   4435
19.3900   4513
19.4150   4508
19.4400   4443
19.4650   4157
19.4900   4109
19.5150   3891
19.5400   3878
19.5650   3843
19.5900   3632
19.6150   3416
19.6400   3226
19.6650   2885
19.6900   2688
19.7150   2261
19.7400   2086
19.7650   1763
19.7900   1452
19.8150   1302
19.8400   1130
19.8650   954
19.8900   822
19.9150   679
19.9400   494
19.9650   347
19.9900   260
20.0150   186
20.0400   143
20.0650   127
20.0900   98
20.1150   74
20.1400   65
20.1650   53
20.1900   43
20.2150   51
20.2400   33
20.2650   37
20.2900   26
20.3150   31
20.3400   24
20.3650   17
20.3900   14
20.4150   16
20.4400   14
20.4650   13
20.4900   9
20.5150   11
20.5400   11
20.5650   15
20.5900   8
20.6150   8
20.6400   12
20.6650   6
20.6900   4
20.7150   7
20.7400   3
20.7650   6
20.7900   3
20.8150   8
20.8400   4
20.8650   3
20.8900   2
20.9150   4
20.9400   4
20.9650   4
20.9900   6
21.0150   3
21.0400   3
21.0650   4
21.0900   1
21.1150   4
21.1400   4
21.1650   4
21.1900   0
21.2150   2
21.2400   4
21.2650   3
21.2900   0
21.3150   2
21.3400   1
21.3650   1
21.3900   5
21.4150   4
21.4400   1
21.4650   4
21.4900   2
21.5150   1
21.5400   2
21.5650   1
21.5900   3
21.6150   2
21.6400   2
21.6650   3
21.6900   2
21.7150   2
21.7400   2
21.7650   1
21.7900   0
21.8150   2
21.8400   1
21.8650   1
21.8900   0
21.9150   3
21.9400   2
21.9650   2
21.9900   1
22.0150   0
22.0400   1
22.0650   1
22.0900   3
22.1150   4
22.1400   0
22.1650   2
22.1900   0
22.2150   4
22.2400   2
22.2650   0
