14.2650   2
14.2900   7
14.3150   4
14.3400   3
14.3650   5
14.3900   4
14.4150   2
14.4400   4
14.4650   5
14.4900   6
14.5150   3
14.5400   2
14.5650   3
14.5900   5
14.6150   5
14.6400   4
14.6650   4
14.6900   6
14.7150   4
14.7400   8
14.7650   4
14.7900   6
14.8150   4
14.8400   5
14.8650   0
14.8900   1
14.9150   2
14.9400   4
14.9650   3
14.9900   5
15.0150   6
15.0400   3
15.0650   3
15.0900   8
15.1150   4
15.1400   4
15.1650   2
15.1900   4
15.2150   9
15.2400   6
15.2650   5
15.2900   2
15.3150   7
15.3400   4
15.3650   5
15.3900   5
15.4150   4
15.4400   4
15.4650   7
15.4900   8
15.5150   7
15.5400   3
15.5650   7
15.5900   3
15.6150   5
15.6400   7
15.6650   3
15.6900   8
15.7150   7
15.7400   3
15.7650   7
15.7900   8
15.8150   6
15.8400   5
15.8650   1
15.8900   1
15.9150   7
15.9400   6
15.9650   9
15.9900   3
16.0150   4
16.0400   8
16.0650   2
16.0900   4
16.1150   4
16.1400   6
16.1650   5
16.1900   6
16.2150   5
16.2400   4
16.2650   5
16.2900   5
16.3150   4
16.3400   5
16.3650   1
16.3900   5
16.4150   4
16.4400   3
16.4650   10
16.4900   3
16.5150   11
16.5400   6
16.5650   7
16.5900   9
16.6150   5
16.6400   9
16.6650   6
16.6900   2
16.7150   4
16.7400   6
16.7650   9
16.7900   8
16.8150   8
16.8400   8
16.8650   8
16.8900   10
16.9150   10
16.9400   8
16.9650   9
16.9900   4
17.0150   7
17.0400   3
17.0650   5
17.0900   9
17.1150   14
17.1400   4
17.1650   6
17.1900   9
17.2150   12
17.2400   14
17.2650   7
17.2900   10
17.3150   11
17.3400   13
17.3650   8
17.3900   14
17.4150   12
17.4400   17
17.4650   13
17.4900   17
17.5150   13
17.5400   18
17.5650   11
17.5900   15
17.6150   15
17.6400   15
17.6650   18
17.6900   27
17.7150   15
17.7400   16
17.7650   23
17.7900   26
17.8150   24
17.8400   29
17.8650   24
17.8900   42
17.9150   33
17.9400   30
17.9650   52
17.9900   35
18.0150   51
18.0400   51
18.0650   62
18.0900   63
18.1150   74
18.1400   78
18.1650   80
18.1900   91
18.2150   111
18.2400   106
18.2650   173
18.2900   173
18.3150   199
18.3400   230
18.3650   252
18.3900   317
18.4150   418
18.4400   510
18.4650   662
18.4900   840
18.5150   1130
18.5400   1330
18.5650   1859
18.5900   2433
18.6150   3238
18.6400   4141
18.6650   5481
18.6900   6595
18.7150   8062
18.7400   9609
18.7650   11343
18.7900   12918
18.8150   14513
18.8400   15670
18.8650   16639
18.8900   17556
18.9150   18170
18.9400   19003
18.9650   19077
18.9900   19003
19.0150   18638
19.0400   17886
19.0650   17660
19.0900   17403
19.1150   17181
19.1400   17285
19.1650   17761
19.1900   18546
19.2150   20075
19.2400   21881
19.2650   23897
19.2900   25829
19.3150   26981
19.3400   28215
19.3650   28454
19.3900   28811
19.4150   28293
19.4400   27823
19.4650   27111
19.4900   25816
19.5150   23890
19.5400   21867
19.5650   19872
19.5900   17274
19.6150   14720
19.6400   12229
19.6650   9876
19.6900   7817
19.7150   6037
19.7400   4674
19.7650   3568
19.7900   2605
19.8150   1879
19.8400   1549
19.8650   1232
19.8900   989
19.9150   788
19.9400   613
19.9650   525
19.9900   460
20.0150   340
20.0400   293
20.0650   231
20.0900   234
20.1150   203
20.1400   152
20.1650   134
20.1900   146
20.2150   99
20.2400   112
20.2650   86
20.2900   77
20.3150   76
20.3400   79
20.3650   62
20.3900   53
20.4150   56
20.4400   62
20.4650   41
20.4900   40
20.5150   52
20.5400   31
20.5650   36
20.5900   26
20.6150   25
20.6400   30
20.6650   26
20.6900   31
20.7150   18
20.7400   19
20.7650   27
20.7900   19
20.8150   8
20.8400   20
20.8650   18
20.8900   11
20.9150   16
20.9400   17
20.9650   9
20.9900   13
21.0150   17
21.0400   9
21.0650   14
21.0900   13
21.1150   11
21.1400   13
21.1650   6
21.1900   15
21.2150   12
21.2400   9
21.2650   7
21.2900   8
21.3150   9
21.3400   4
21.3650   14
21.3900   10
21.4150   10
21.4400   7
21.4650   6
21.4900   11
21.5150   7
21.5400   12
21.5650   7
21.5900   5
21.6150   5
21.6400   5
21.6650   9
21.6900   6
21.7150   8
21.7400   3
21.7650   11
21.7900   4
21.8150   8
21.8400   6
21.8650   6
21.8900   4
21.9150   5
21.9400   7
21.9650   8
21.9900   4
22.0150   8
22.0400   5
22.0650   6
22.0900   7
22.1150   4
22.1400   2
22.1650   5
22.1900   6
22.2150   6
22.2400   5
22.2650   10
22.2900   7
22.3150   8
22.3400   6
22.3650   2
22.3900   1
22.4150   4
22.4400   7
22.4650   6
22.4900   6
22.5150   6
22.5400   9
22.5650   8
22.5900   3
22.6150   4
22.6400   7
22.6650   6
22.6900   4
22.7150   2
22.7400   3
22.7650   2
22.7900   5
22.8150   5
22.8400   7
22.8650   7
22.8900   7
22.9150   2
22.9400   8
22.9650   5
22.9900   6
23.0150   2
23.0400   8
23.0650   3
23.0900   5
23.1150   4
23.1400   7
23.1650   5
23.1900   6
23.2150   10
23.2400   8
23.2650   4
23.2900   5
23.3150   4
23.3400   6
23.3650   2
23.3900   1
23.4150   5
23.4400   5
23.4650   4
23.4900   6
23.5150   2
23.5400   5
23.5650   6
23.5900   4
23.6150   11
23.6400   2
23.6650   5
23.6900   2
23.7150   3
23.7400   2
23.7650   5
23.7900   6
23.8150   6
23.8400   6
23.8650   4
23.8900   7
23.9150   4
23.9400   3
23.9650   6
23.9900   2
24.0150   6
24.0400   3
24.0650   2
24.0900   2
24.1150   6
24.1400   3
24.1650   4
24.1900   4
24.2150   4
24.2400   6
24.2650   3
