14.2650   4
14.2900   1
14.3150   2
14.3400   0
14.3650   1
14.3900   2
14.4150   0
14.4400   1
14.4650   1
14.4900   4
14.5150   0
14.5400   1
14.5650   0
14.5900   2
14.6150   3
14.6400   1
14.6650   1
14.6900   3
14.7150   6
14.7400   1
14.7650   0
14.7900   1
14.8150   1
14.8400   2
14.8650   1
14.8900   1
14.9150   5
14.9400   0
14.9650   3
14.9900   1
15.0150   2
15.0400   3
15.0650   0
15.0900   4
15.1150   2
15.1400   5
15.1650   1
15.1900   2
15.2150   2
15.2400   5
15.2650   2
15.2900   1
15.3150   2
15.3400   3
15.3650   2
15.3900   1
15.4150   1
15.4400   2
15.4650   1
15.4900   2
15.5150   1
15.5400   3
15.5650   2
15.5900   7
15.6150   1
15.6400   1
15.6650   0
15.6900   1
15.7150   2
15.7400   1
15.7650   0
15.7900   3
15.8150   2
15.8400   2
15.8650   2
15.8900   3
15.9150   4
15.9400   2
15.9650   5
15.9900   2
16.0150   1
16.0400   1
16.0650   1
16.0900   6
16.1150   4
16.1400   1
16.1650   2
16.1900   5
16.2150   1
16.2400   3
16.2650   2
16.2900   2
16.3150   1
16.3400   5
16.3650   3
16.3900   1
16.4150   0
16.4400   2
16.4650   2
16.4900   3
16.5150   5
16.5400   4
16.5650   3
16.5900   2
16.6150   1
16.6400   0
16.6650   4
16.6900   2
16.7150   5
16.7400   0
16.7650   1
16.7900   4
16.8150   3
16.8400   4
16.8650   3
16.8900   0
16.9150   3
16.9400   2
16.9650   4
16.9900   2
17.0150   5
17.0400   4
17.0650   5
17.0900   3
17.1150   1
17.1400   8
17.1650   4
17.1900   1
17.2150   3
17.2400   3
17.2650   3
17.2900   1
17.3150   7
17.3400   4
17.3650   2
17.3900   3
17.4150   5
17.4400   3
17.4650   7
17.4900   2
17.5150   7
17.5400   6
17.5650   4
17.5900   4
17.6150   6
17.6400   4
17.6650   4
17.6900   7
17.7150   5
17.7400   12
17.7650   4
17.7900   10
17.8150   10
17.8400   10
17.8650   7
17.8900   11
17.9150   12
17.9400   12
17.9650   8
17.9900   13
18.0150   18
18.0400   20
18.0650   15
18.0900   24
18.1150   23
18.1400   21
18.1650   31
18.1900   33
18.2150   28
18.2400   44
18.2650   36
18.2900   53
18.3150   63
18.3400   68
18.3650   99
18.3900   127
18.4150   150
18.4400   188
18.4650   215
18.4900   294
18.5150   386
18.5400   431
18.5650   627
18.5900   790
18.6150   1071
18.6400   1378
18.6650   1791
18.6900   2245
18.7150   2945
18.7400   3295
18.7650   3848
18.7900   4451
18.8150   4932
18.8400   5283
18.8650   5877
18.8900   6084
18.9150   6250
18.9400   6405
18.9650   6557
18.9900   6642
19.0150   6466
19.0400   6233
19.0650   6240
19.0900   5896
19.1150   5834
19.1400   5994
19.1650   6198
19.1900   6542
19.2150   7095
19.2400   7605
19.2650   8224
19.2900   9117
19.3150   9662
19.3400   9788
19.3650   10188
19.3900   10184
19.4150   9974
19.4400   9696
19.4650   9697
19.4900   8961
19.5150   8307
19.5400   7551
19.5650   6530
19.5900   5995
19.6150   4831
19.6400   4085
19.6650   3230
19.6900   2692
19.7150   1904
19.7400   1532
19.7650   1162
19.7900   858
19.8150   717
19.8400   490
19.8650   406
19.8900   319
19.9150   255
19.9400   180
19.9650   148
19.9900   146
20.0150   124
20.0400   102
20.0650   84
20.0900   85
20.1150   52
20.1400   39
20.1650   41
20.1900   54
20.2150   45
20.2400   35
20.2650   47
20.2900   31
20.3150   27
20.3400   32
20.3650   27
20.3900   23
20.4150   18
20.4400   15
20.4650   15
20.4900   7
20.5150   11
20.5400   11
20.5650   10
20.5900   12
20.6150   18
20.6400   5
20.6650   7
20.6900   7
20.7150   7
20.7400   10
20.7650   7
20.7900   5
20.8150   7
20.8400   8
20.8650   7
20.8900   7
20.9150   2
20.9400   6
20.9650   4
20.9900   5
21.0150   6
21.0400   8
21.0650   6
21.0900   6
21.1150   2
21.1400   3
21.1650   4
21.1900   4
21.2150   3
21.2400   3
21.2650   2
21.2900   1
21.3150   4
21.3400   1
21.3650   0
21.3900   4
21.4150   4
21.4400   2
21.4650   1
21.4900   2
21.5150   4
21.5400   6
21.5650   1
21.5900   4
21.6150   5
21.6400   3
21.6650   1
21.6900   2
21.7150   2
21.7400   2
21.7650   4
21.7900   3
21.8150   2
21.8400   4
21.8650   3
21.8900   4
21.9150   4
21.9400   3
21.9650   3
21.9900   1
22.0150   2
22.0400   2
22.0650   0
22.0900   2
22.1150   1
22.1400   1
22.1650   4
22.1900   1
22.2150   1
22.2400   0
22.2650   1
22.2900   2
22.3150   5
22.3400   2
22.3650   4
22.3900   1
22.4150   1
22.4400   1
22.4650   1
22.4900   0
22.5150   1
22.5400   2
22.5650   3
22.5900   2
22.6150   1
22.6400   2
22.6650   0
22.6900   2
22.7150   4
22.7400   2
22.7650   4
22.7900   1
22.8150   2
22.8400   3
22.8650   6
22.8900   3
22.9150   1
22.9400   2
22.9650   4
22.9900   0
23.0150   0
23.0400   2
23.0650   4
23.0900   4
23.1150   6
23.1400   4
23.1650   2
23.1900   2
23.2150   3
23.2400   2
23.2650   3
23.2900   1
23.3150   2
23.3400   0
23.3650   1
23.3900   3
23.4150   3
23.4400   1
23.4650   1
23.4900   4
23.5150   1
23.5400   1
23.5650   2
23.5900   1
23.6150   0
23.6400   2
23.6650   4
23.6900   2
23.7150   1
23.7400   1
23.7650   2
23.7900   1
23.8150   1
23.8400   0
23.8650   0
23.8900   5
23.9150   2
23.9400   1
23.9650   1
23.9900   2
24.0150   2
24.0400   3
24.0650   3
24.0900   3
24.1150   1
24.1400   2
24.1650   1
24.1900   3
24.2150   3
24.2400   4
24.2650   3
